Data from mesure_FLMT021711__15__37.txt Node

Date: Mon Nov 04 11:52:29 CET 2024
User: jordan.swietlicki
Spectrometer: FLMT02171
Trigger mode: 0
Integration Time (sec): 1,000000E-1
Scans to average: 15
Electric dark correction enabled: true
Nonlinearity correction enabled: false
Boxcar width: 15
XAxis mode: Wavelengths
Number of Pixels in Spectrum: 3648
>>>>>Begin Spectral Data<<<<<
194,7	-40,282
194,9	-38,435
195,2	-34,818
195,5	-34,062
195,7	-30,955
196	-29,837
196,2	-29,463
196,5	-30,754
196,8	-29,38
197	-28,466
197,3	-28,351
197,6	-25,699
197,8	-25,962
198,1	-24,667
198,4	-23,093
198,6	-22,193
198,9	-18,387
199,2	-13,937
199,4	-9,755
199,7	-4,301
200	-4,788
200,2	-7,352
200,5	-7,495
200,7	-7,726
201	-6,277
201,3	-5,259
201,5	-4,154
201,8	-4,392
202,1	-3,347
202,3	-4,467
202,6	-4,58
202,9	-4,791
203,1	-4,082
203,4	-5,187
203,7	-5,67
203,9	-6,338
204,2	-5,836
204,5	-4,821
204,7	-3,166
205	-2,717
205,2	-1,868
205,5	-0,582
205,8	-1,167
206	1,665
206,3	2,684
206,6	3,823
206,8	4,396
207,1	4,781
207,4	6,252
207,6	9,604
207,9	10,619
208,2	12,278
208,4	14,462
208,7	14,383
208,9	15,578
209,2	14,594
209,5	13,817
209,7	14,168
210	14,387
210,3	14,556
210,5	16,472
210,8	16,314
211,1	16,042
211,3	15,982
211,6	15,627
211,9	16,555
212,1	16,476
212,4	16,721
212,6	16,257
212,9	16,257
213,2	14,59
213,4	14,737
213,7	14,877
214	15,171
214,2	12,772
214,5	12,275
214,8	11,931
215	11,599
215,3	14,507
215,5	15,307
215,8	12,753
216,1	11,89
216,3	12,158
216,6	10,996
216,9	11,339
217,1	11,332
217,4	11,467
217,7	11,565
217,9	9,171
218,2	8,752
218,5	7,654
218,7	6,195
219	6,304
219,2	8,235
219,5	9,054
219,8	9,582
220	9,533
220,3	10,841
220,6	11,169
220,8	10,076
221,1	10,525
221,4	10,287
221,6	10,743
221,9	11,158
222,1	11,087
222,4	11,467
222,7	12,697
222,9	9,857
223,2	8,974
223,5	6,474
223,7	6,961
224	6,715
224,2	6,312
224,5	6,35
224,8	6,81
225	6,466
225,3	6,829
225,6	5,867
225,8	6,353
226,1	8,36
226,4	7,707
226,6	6,218
226,9	7,983
227,1	8,239
227,4	7,745
227,7	6,451
227,9	6,632
228,2	6,987
228,5	5,441
228,7	4,279
229	5,339
229,3	5,305
229,5	8,639
229,8	8,062
230	7,866
230,3	5,833
230,6	6,591
230,8	5,082
231,1	6,938
231,4	6,542
231,6	10,683
231,9	9,74
232,1	11,437
232,4	10,894
232,7	10,427
232,9	9,593
233,2	9,337
233,5	8,45
233,7	9,197
234	8,198
234,2	7,274
234,5	8,639
234,8	12,158
235	11,973
235,3	12,342
235,6	11,317
235,8	11,501
236,1	11,769
236,4	11,505
236,6	12,697
236,9	13,387
237,1	14,428
237,4	14,813
237,7	11,215
237,9	10,215
238,2	8,692
238,5	10,728
238,7	9,872
239	10,626
239,2	10,132
239,5	11,871
239,8	8,948
240	7,266
240,3	8,186
240,6	8,397
240,8	7,651
241,1	7,9
241,3	6,945
241,6	5,776
241,9	4,354
242,1	5,599
242,4	7,059
242,7	6,04
242,9	5,799
243,2	5,203
243,4	5,599
243,7	5,799
244	4,358
244,2	4,841
244,5	4,426
244,8	4,984
245	5,629
245,3	6,715
245,5	5,799
245,8	6,768
246,1	6,87
246,3	6,829
246,6	6,233
246,9	7,952
247,1	7,074
247,4	7,911
247,6	8,925
247,9	8,477
248,2	9,295
248,4	6,531
248,7	7,255
248,9	7,123
249,2	6,878
249,5	8,141
249,7	8,956
250	8,529
250,3	7,673
250,5	6,602
250,8	8,077
251	6,614
251,3	7,341
251,6	8,013
251,8	8,401
252,1	8,62
252,4	6,187
252,6	6,825
252,9	4,984
253,1	4,057
253,4	1,292
253,7	2,069
253,9	3,385
254,2	4,245
254,4	4,709
254,7	5,192
255	5,463
255,2	6,636
255,5	5,893
255,8	4,475
256	4,415
256,3	4,611
256,5	4,724
256,8	4,26
257,1	5,471
257,3	5,331
257,6	5,599
257,8	6,259
258,1	7,832
258,4	9,046
258,6	8,91
258,9	9,095
259,2	8,318
259,4	7,292
259,7	4,513
259,9	3,732
260,2	5,35
260,5	7,526
260,7	6,697
261	7,036
261,2	5,969
261,5	6,519
261,8	5,965
262	6,866
262,3	5,999
262,6	5,339
262,8	3,645
263,1	2,088
263,3	1,175
263,6	1,907
263,9	1,779
264,1	1,85
264,4	2,895
264,6	3,566
264,9	2,759
265,2	2,601
265,4	2,601
265,7	4,181
266	2,729
266,2	3,272
266,5	2,944
266,7	1,688
267	-1,005
267,3	0,398
267,5	2,378
267,8	4,769
268	5,335
268,3	4,392
268,6	2,77
268,8	4,894
269,1	3,562
269,3	3,913
269,6	3,555
269,9	3,083
270,1	0,266
270,4	1,209
270,6	2,058
270,9	2,484
271,2	2,303
271,4	0,225
271,7	-1,959
272	-2,54
272,2	-1,763
272,5	-2,962
272,7	-1,997
273	-0,771
273,3	-0,711
273,5	0,836
273,8	-1,714
274	-0,164
274,3	-1,431
274,6	-2,159
274,8	0,213
275,1	2,239
275,3	2,427
275,6	1,801
275,9	0,587
276,1	0,289
276,4	0,432
276,6	1,639
276,9	0,907
277,2	3,125
277,4	3,261
277,7	5,908
277,9	6,093
278,2	7,176
278,5	8,42
278,7	8,454
279	8,348
279,2	7,436
279,5	8,729
279,8	10,536
280	11,117
280,3	9,378
280,5	8,684
280,8	8,967
281,1	7,93
281,3	8,499
281,6	7,002
281,9	8,318
282,1	7,813
282,4	7,602
282,6	8,586
282,9	7,786
283,2	6,7
283,4	5,886
283,7	4,879
283,9	5,003
284,2	5,69
284,5	5,139
284,7	2,895
285	1,733
285,2	-0,303
285,5	0,839
285,8	-1,016
286	3,789
286,3	4,388
286,5	2,522
286,8	2,74
287,1	3,596
287,3	3,981
287,6	2,789
287,8	2,341
288,1	1,19
288,4	1,009
288,6	4,087
288,9	3,197
289,1	3,442
289,4	0,987
289,7	2,28
289,9	0,968
290,2	2,352
290,4	3,604
290,7	1,846
290,9	0,413
291,2	1,447
291,5	2,895
291,7	4,238
292	5,459
292,2	4,573
292,5	5,614
292,8	8,428
293	8,122
293,3	9,216
293,5	10,988
293,8	11,188
294,1	8,066
294,3	7,481
294,6	7,764
294,8	7,315
295,1	7,802
295,4	8,922
295,6	9,959
295,9	10,97
296,1	10,664
296,4	12,143
296,7	8,081
296,9	7,952
297,2	6,685
297,4	8,42
297,7	7,545
298	8,756
298,2	8,288
298,5	8,876
298,7	10,257
299	11,826
299,3	11,343
299,5	8,786
299,8	8,793
300	8,571
300,3	9,627
300,5	10,151
300,8	8,288
301,1	10,091
301,3	11,147
301,6	8,299
301,8	6,233
302,1	4,585
302,4	4,837
302,6	4,554
302,9	4,931
303,1	3,645
303,4	4,045
303,7	5,256
303,9	3,31
304,2	3,755
304,4	3,087
304,7	5,607
304,9	4,882
305,2	7,477
305,5	7,711
305,7	7,179
306	7,971
306,2	8,624
306,5	8,522
306,8	7,918
307	6,195
307,3	6,191
307,5	6,651
307,8	4,271
308,1	2,107
308,3	2,103
308,6	0,666
308,8	1,76
309,1	1,658
309,3	2,107
309,6	1,643
309,9	4,004
310,1	3,943
310,4	4,464
310,6	5,022
310,9	4,49
311,2	4,505
311,4	3,687
311,7	3,581
311,9	4,362
312,2	5,667
312,5	5,365
312,7	5,116
313	4,573
313,2	4,219
313,5	3,54
313,7	2,555
314	1,141
314,3	-0,126
314,5	0,281
314,8	1,307
315	2,363
315,3	1,733
315,6	1,028
315,8	1,439
316,1	2,74
316,3	1,352
316,6	1,846
316,8	0,768
317,1	-0,33
317,4	-2,808
317,6	-2,502
317,9	-2,581
318,1	-1,948
318,4	-1,831
318,6	-2,872
318,9	-3,188
319,2	-3,302
319,4	-3,954
319,7	-5,429
319,9	-5,723
320,2	-6,141
320,5	-5,534
320,7	-5,896
321	-5,5
321,2	-7,337
321,5	-5,742
321,7	-4,859
322	-3,867
322,3	-4,999
322,5	-5,395
322,8	-7,02
323	-7,888
323,3	-6,602
323,5	-5,832
323,8	-4,486
324,1	-5,082
324,3	-3,305
324,6	-3,441
324,8	-2,344
325,1	-3,177
325,4	-1,793
325,6	-1,009
325,9	-2,298
326,1	-1,438
326,4	-2,132
326,6	-2,019
326,9	-1,25
327,2	-1,065
327,4	0,13
327,7	0,553
327,9	2,254
328,2	2,408
328,4	2,446
328,7	4,505
329	4,815
329,2	5,399
329,5	3,766
329,7	4,162
330	4,128
330,2	6,38
330,5	7,304
330,8	6,572
331	8,386
331,3	6,67
331,5	6,772
331,8	5,101
332	5,637
332,3	3,14
332,6	2,929
332,8	2,902
333,1	3,842
333,3	4,339
333,6	4,679
333,8	5,931
334,1	5,509
334,4	5,067
334,6	4,083
334,9	3,468
335,1	4,136
335,4	3,144
335,6	4,17
335,9	1,409
336,2	-0,318
336,4	-0,571
336,7	-2,653
336,9	-1,582
337,2	-1,608
337,4	-1,261
337,7	-1,212
338	-3,215
338,2	-2,94
338,5	-4,475
338,7	-2,894
339	-3,581
339,2	-1,208
339,5	-2,94
339,8	-1,974
340	-0,741
340,3	0,342
340,5	0,79
340,8	3,378
341	3,468
341,3	2,031
341,6	1,349
341,8	1,277
342,1	-0,183
342,3	0,421
342,6	2,812
342,8	3,408
343,1	3,234
343,4	3,261
343,6	1,82
343,9	4,004
344,1	5,844
344,4	6,244
344,6	5,018
344,9	4,219
345,1	4,053
345,4	4,226
345,7	3,63
345,9	5,199
346,2	3,604
346,4	3,102
346,7	1,914
346,9	2,163
347,2	0,01
347,5	1,484
347,7	1,846
348	0,017
348,2	1,002
348,5	0,44
348,7	1,586
349	1,281
349,2	3,423
349,5	3,811
349,8	3,725
350	3,951
350,3	3,604
350,5	2,804
350,8	2,676
351	2,642
351,3	3,215
351,6	2,748
351,8	1,092
352,1	0,085
352,3	0,029
352,6	1,797
352,8	1,639
353,1	1,262
353,3	1,473
353,6	0,953
353,9	0,462
354,1	-0,107
354,4	0,425
354,6	2,092
354,9	1,763
355,1	3,238
355,4	3,683
355,6	3,728
355,9	3,815
356,2	3,479
356,4	5,026
356,7	1,22
356,9	1,379
357,2	0,24
357,4	-0,507
357,7	-1,657
358	1,552
358,2	0,971
358,5	0,817
358,7	-0,341
359	0,236
359,2	1,156
359,5	1,662
359,7	3,755
360	4,143
360,3	6,353
360,5	5,893
360,8	5,365
361	7,432
361,3	5,399
361,5	6,176
361,8	5,478
362	7,507
362,3	7,296
362,6	7,828
362,8	9,676
363,1	9,883
363,3	10,543
363,6	11,362
363,8	12,229
364,1	11,279
364,3	10,804
364,6	11,328
364,8	12,516
365,1	12,625
365,4	15,175
365,6	16,099
365,9	14,786
366,1	15,59
366,4	15,088
366,6	16,755
366,9	17,332
367,1	16,759
367,4	19,501
367,7	19,791
367,9	19,64
368,2	17,717
368,4	16,14
368,7	17,524
368,9	18,369
369,2	18,539
369,4	19,433
369,7	21,247
370	19,81
370,2	19,565
370,5	19,191
370,7	18,154
371	18,792
371,2	18,331
371,5	18,448
371,7	19,003
372	19,493
372,2	19,312
372,5	19,87
372,8	19,467
373	17,298
373,3	14,832
373,5	16,77
373,8	15,748
374	15,79
374,3	17,332
374,5	18,056
374,8	18,173
375	18,128
375,3	16,397
375,6	14,941
375,8	16,744
376,1	17,702
376,3	19,738
376,6	19,014
376,8	16,853
377,1	19,682
377,3	18,271
377,6	17,788
377,8	18,727
378,1	21,168
378,4	21,239
378,6	21,756
378,9	19,636
379,1	20,311
379,4	19,866
379,6	18,965
379,9	18,237
380,1	18,166
380,4	18,595
380,6	18,939
380,9	20,557
381,2	21,3
381,4	21,036
381,7	22,601
381,9	23,747
382,2	24,366
382,4	23,879
382,7	22,936
382,9	23,397
383,2	25,06
383,4	26,172
383,7	26,878
383,9	25,886
384,2	25,84
384,5	27,881
384,7	29,103
385	28,39
385,2	30,053
385,5	30,445
385,7	30,653
386	30,551
386,2	30,943
386,5	28,726
386,7	30,841
387	29,676
387,2	31,23
387,5	33,127
387,8	35,111
388	36,891
388,3	37,585
388,5	38,475
388,8	40,006
389	40,862
389,3	38,777
389,5	36,876
389,8	38,267
390	36,525
390,3	36,642
390,5	36,819
390,8	38,856
391,1	38,169
391,3	38,192
391,6	37,687
391,8	38,758
392,1	38,256
392,3	39,297
392,6	40,055
392,8	41,149
393,1	44,37
393,3	45,995
393,6	46,463
393,8	46,278
394,1	49,031
394,4	52,697
394,6	54,322
394,9	57,366
395,1	57,683
395,4	57,185
395,6	58,712
395,9	58,339
396,1	58,882
396,4	59,584
396,6	60,945
396,9	60,904
397,1	62,631
397,4	65,791
397,6	64,988
397,9	67,372
398,2	69,834
398,4	72,886
398,7	73,564
398,9	74,085
399,2	76,499
399,4	77,996
399,7	77,917
399,9	78,943
400,2	78,588
400,4	79,112
400,7	80,477
400,9	79,553
401,2	80,398
401,4	80,809
401,7	81,164
401,9	79,757
402,2	77,683
402,5	77,242
402,7	74,858
403	75,85
403,2	77,336
403,5	77,343
403,7	78,132
404	79,082
404,2	79,044
404,5	80,436
404,7	82,446
405	84,577
405,2	85,569
405,5	87,628
405,7	88,997
406	89,088
406,2	89,51
406,5	90,276
406,7	89,872
407	89,371
407,3	89,646
407,5	91,294
407,8	92,867
408	92,026
408,3	93,734
408,5	94,394
408,8	93,923
409	95,22
409,3	96,442
409,5	99,112
409,8	99,195
410	102,831
410,3	103,823
410,5	108,367
410,8	107,477
411	108,069
411,3	109,555
411,5	111,173
411,8	110,751
412	110,985
412,3	111,449
412,6	113,451
412,8	113,089
413,1	111,837
413,3	111,777
413,6	111
413,8	111,452
414,1	111,09
414,3	110,51
414,6	112,64
414,8	111,377
415,1	111,26
415,3	111,441
415,6	113,636
415,8	114,515
416,1	114,549
416,3	114,126
416,6	116,11
416,8	115,292
417,1	117,536
417,3	115,216
417,6	116,861
417,8	117,042
418,1	117,521
418,4	116,623
418,6	118,467
418,9	119,15
419,1	119,972
419,4	119,58
419,6	120,802
419,9	122,107
420,1	121,221
420,4	120,87
420,6	121,1
420,9	120,41
421,1	120,587
421,4	122,133
421,6	121,571
421,9	121,549
422,1	120,225
422,4	119,901
422,6	121,835
422,9	120,745
423,1	121,322
423,4	121,017
423,6	121,515
423,9	122,397
424,1	123,706
424,4	122,273
424,6	120,689
424,9	119,712
425,1	120,236
425,4	118,584
425,6	119,161
425,9	117,747
426,2	118,181
426,4	117,321
426,7	116,748
426,9	114,805
427,2	113,138
427,4	111,732
427,7	109,933
427,9	108,315
428,2	106,802
428,4	108,469
428,7	108,752
428,9	109,273
429,2	109,85
429,4	110,419
429,7	109,77
429,9	109,461
430,2	109,031
430,4	108,692
430,7	111,532
430,9	111,66
431,2	110,551
431,4	111,275
431,7	111,06
431,9	109,322
432,2	111,015
432,4	112,501
432,7	112,803
432,9	114,964
433,2	117,181
433,4	116,65
433,7	119,207
433,9	119,127
434,2	118,373
434,4	118,294
434,7	119,882
434,9	121,36
435,2	121,662
435,4	123,076
435,7	124,573
435,9	124,566
436,2	123,936
436,4	125,226
436,7	124,441
436,9	123,065
437,2	122,654
437,4	124,355
437,7	126,154
437,9	128,088
438,2	127,836
438,4	126,666
438,7	127,255
438,9	126,617
439,2	125,49
439,4	123,291
439,7	124,125
439,9	123,796
440,2	122,952
440,5	123,276
440,7	121,786
441	121,266
441,2	121,752
441,5	119,776
441,7	118,78
442	119,584
442,2	119,667
442,5	118,445
442,7	119,459
443	120,029
443,2	120,466
443,5	119,727
443,7	120,511
444	119,474
444,2	119,569
444,5	120,527
444,7	121,654
445	121,711
445,2	120,496
445,5	119,448
445,7	119,007
446	119,327
446,2	119,109
446,5	118,897
446,7	120,462
447	120,994
447,2	122,918
447,5	124,057
447,7	122,405
448	122,842
448,2	123,25
448,5	123,796
448,7	124,505
449	123,28
449,2	124,385
449,5	125,61
449,7	124
450	123,932
450,2	125,132
450,5	124,045
450,7	125,169
451	124,396
451,2	125,188
451,5	124,8
451,7	126,308
452	128,515
452,2	127,843
452,5	127,5
452,7	128,601
452,9	129,058
453,2	129,642
453,4	130,132
453,7	131,241
453,9	130,974
454,2	130,181
454,4	128,971
454,7	131,241
454,9	130,378
455,2	128,846
455,4	129,853
455,7	131,72
455,9	130,366
456,2	131,317
456,4	131,124
456,7	131,517
456,9	130,638
457,2	129,548
457,4	132,599
457,7	134,292
457,9	134,266
458,2	134,406
458,4	134,492
458,7	135,624
458,9	135,209
459,2	135,326
459,4	135,62
459,7	134,805
459,9	134,553
460,2	135,115
460,4	133,904
460,7	135,499
460,9	136,634
461,2	136,122
461,4	135,567
461,7	136,831
461,9	137,811
462,2	137,649
462,4	136,114
462,7	137,924
462,9	138,019
463,2	137,181
463,4	135,484
463,7	136,193
463,9	135,386
464,2	134,975
464,4	135,054
464,7	135,801
464,9	135,122
465,2	134,587
465,4	133,915
465,7	135,081
465,9	135,944
466,2	135,718
466,4	135,092
466,6	136,303
466,9	135,33
467,1	133,338
467,4	133,195
467,6	134,756
467,9	132,855
468,1	132,757
468,4	130,653
468,6	129,344
468,9	128,816
469,1	127,824
469,4	127,425
469,6	126,757
469,9	126,693
470,1	128,066
470,4	125,837
470,6	128,02
470,9	129,521
471,1	130,227
471,4	128,594
471,6	128,383
471,9	129,374
472,1	129,465
472,4	128,914
472,6	130,483
472,9	129,914
473,1	130,585
473,4	129,967
473,6	130,027
473,9	128,926
474,1	129,374
474,3	128,432
474,6	130,713
474,8	131,056
475,1	130,049
475,3	128,609
475,6	129,846
475,8	130,909
476,1	132,441
476,3	131,852
476,6	132,478
476,8	132,486
477,1	135,05
477,3	135,209
477,6	136,284
477,8	135,069
478,1	136,34
478,3	135,552
478,6	137,113
478,8	136,525
479,1	136,159
479,3	135,284
479,6	135,922
479,8	134,564
480,1	135,413
480,3	135,699
480,5	136,382
480,8	134,756
481	135,167
481,3	134,945
481,5	135,45
481,8	134,402
482	136,174
482,3	134,915
482,5	133,783
482,8	133,436
483	133,651
483,3	134,013
483,5	134,809
483,8	133,625
484	133,972
484,3	132,158
484,5	134,232
484,8	133,033
485	132,094
485,2	131,207
485,5	132,222
485,7	131,388
486	131,234
486,2	129,906
486,5	131,728
486,7	132,55
487	134,206
487,2	132,686
487,5	134,636
487,7	135,609
488	133,595
488,2	132,976
488,5	132,942
488,7	131,117
489	129,974
489,2	129,623
489,5	130,234
489,7	128,718
489,9	127,217
490,2	126,923
490,4	127,179
490,7	127,704
490,9	126,297
491,2	124,713
491,4	126,674
491,7	127,779
491,9	128,843
492,2	127,315
492,4	125,554
492,7	127,138
492,9	128,96
493,2	128,171
493,4	127,066
493,6	125,456
493,9	125,211
494,1	122,088
494,4	122,046
494,6	119,98
494,9	118,743
495,1	116,544
495,4	114,926
495,6	115,65
495,9	116,261
496,1	116,944
496,4	117,709
496,6	119,587
496,9	122,284
497,1	121,673
497,3	121,371
497,6	121,782
497,8	124,792
498,1	123,842
498,3	122,786
498,6	121,707
498,8	120,828
499,1	119,742
499,3	119,742
499,6	120,659
499,8	120,749
500,1	119,599
500,3	118,264
500,6	116,853
500,8	115,635
501	117,551
501,3	116,167
501,5	113,836
501,8	115,054
502	116,789
502,3	115,786
502,5	114,696
502,8	115,722
503	117,524
503,3	115,548
503,5	112,999
503,8	113,553
504	112,045
504,2	111,098
504,5	109,431
504,7	110,457
505	109,816
505,2	111,264
505,5	110,875
505,7	111,649
506	110,766
506,2	112,871
506,5	112,554
506,7	110,219
506,9	108,91
507,2	107,609
507,4	105,154
507,7	107,085
507,9	107,259
508,2	107,259
508,4	106,572
508,7	105,316
508,9	105,467
509,2	107,025
509,4	106,512
509,7	105,565
509,9	107,523
510,1	107,749
510,4	106,018
510,6	102,895
510,9	105,154
511,1	106,674
511,4	105,769
511,6	106,165
511,9	104,456
512,1	101,926
512,4	101,658
512,6	101,179
512,8	98,599
513,1	96,521
513,3	95,68
513,6	95,028
513,8	93,542
514,1	92,844
514,3	92,58
514,6	92,893
514,8	91,66
515,1	92,833
515,3	90,562
515,5	90,796
515,8	90,789
516	90,74
516,3	90,246
516,5	89,808
516,8	89,197
517	87,741
517,3	86,61
517,5	85,739
517,7	85,844
518	85,807
518,2	85,184
518,5	84,46
518,7	83,464
519	81,794
519,2	81,217
519,5	81,594
519,7	81,047
520	79,64
520,2	78,954
520,4	80,677
520,7	82,582
520,9	82,978
521,2	83,11
521,4	82,103
521,7	83,925
521,9	83,879
522,2	80,406
522,4	82,559
522,6	82,348
522,9	83,521
523,1	83,227
523,4	82,993
523,6	82,292
523,9	83,453
524,1	83,695
524,4	82,163
524,6	82,499
524,8	80,772
525,1	79,836
525,3	79,987
525,6	81,239
525,8	82,484
526,1	81,541
526,3	81,945
526,6	81,432
526,8	79,916
527	82,095
527,3	82,273
527,5	82,024
527,8	82,333
528	79,919
528,3	80,123
528,5	79,418
528,8	78,09
529	78,147
529,2	79,587
529,5	79,082
529,7	82,469
530	81,062
530,2	82,586
530,5	79,833
530,7	78,448
531	77,943
531,2	78,735
531,4	76,495
531,7	77,947
531,9	78,482
532,2	79,282
532,4	80,485
532,7	81,273
532,9	80,677
533,2	79,207
533,4	78,335
533,6	78,283
533,9	76,461
534,1	76,152
534,4	77,309
534,6	77,517
534,9	76,838
535,1	76,661
535,3	76,129
535,6	77,079
535,8	74,553
536,1	74,982
536,3	76,038
536,6	76,929
536,8	75,356
537,1	76,521
537,3	74,485
537,5	74,96
537,8	73,617
538	74,828
538,3	74,021
538,5	72,275
538,8	71,845
539	71,649
539,2	71,102
539,5	70,826
539,7	70,989
540	71,222
540,2	72,241
540,5	72,21
540,7	72,346
540,9	72,429
541,2	72,72
541,4	76,208
541,7	79,391
541,9	79,957
542,2	76,536
542,4	77,807
542,7	78,026
542,9	79,063
543,1	79,497
543,4	82,623
543,6	82,525
543,9	82,635
544,1	82,322
544,4	81,205
544,6	80,594
544,8	82,16
545,1	81,288
545,3	81,134
545,6	81,424
545,8	82,657
546,1	83,261
546,3	83,193
546,5	84,238
546,8	85,478
547	85,546
547,3	84,977
547,5	83,845
547,8	82,929
548	82,703
548,2	83,608
548,5	82,235
548,7	82,111
549	79,361
549,2	79,399
549,5	78,652
549,7	79,323
549,9	78,731
550,2	77,894
550,4	78,026
550,7	78,633
550,9	75,035
551,2	75,767
551,4	76,072
551,6	75,548
551,9	76,657
552,1	75,544
552,4	75,145
552,6	73,696
552,9	74,583
553,1	74,315
553,3	73,353
553,6	74,055
553,8	73,478
554,1	74,643
554,3	71,879
554,5	70,928
554,8	69,046
555	68,447
555,3	66,64
555,5	66,467
555,8	64,864
556	66,221
556,2	63,981
556,5	63,834
556,7	61,39
557	62,586
557,2	61,522
557,5	62,699
557,7	64,475
557,9	62,393
558,2	60,923
558,4	62,669
558,7	60,244
558,9	60,089
559,2	60,579
559,4	58,86
559,6	60,576
559,9	61,296
560,1	61,092
560,4	61,258
560,6	60,206
560,8	60,323
561,1	59,289
561,3	60,236
561,6	58,29
561,8	57,822
562,1	56,849
562,3	57,615
562,5	58,275
562,8	59,949
563	58,637
563,3	59,716
563,5	58,969
563,7	59,799
564	59,274
564,2	59,24
564,5	57,781
564,7	59,61
565	59,587
565,2	56,8
565,4	58,135
565,7	60,312
565,9	58,365
566,2	59,206
566,4	58,467
566,6	59,697
566,9	61,149
567,1	61,888
567,4	60,172
567,6	61,096
567,9	60,021
568,1	61,688
568,3	61,473
568,6	61,545
568,8	61,703
569,1	60,587
569,3	60,643
569,5	61,469
569,8	61,79
570	61,058
570,3	61,092
570,5	62,299
570,7	62,129
571	62,85
571,2	64,249
571,5	64,298
571,7	63,781
572	64,392
572,2	63,019
572,4	62,944
572,7	64,788
572,9	65,603
573,2	63,683
573,4	63,378
573,6	62,797
573,9	62,933
574,1	61,19
574,4	58,735
574,6	58,373
574,8	57,992
575,1	58,758
575,3	58,294
575,6	57,524
575,8	57,257
576	56,763
576,3	55,495
576,5	59,007
576,8	60,553
577	61,797
577,3	63,182
577,5	63,736
577,7	63,596
578	63,864
578,2	63,442
578,5	61,929
578,7	61,658
578,9	62,661
579,2	63,276
579,4	62,457
579,7	62,582
579,9	61,171
580,1	60,64
580,4	60,172
580,6	61,126
580,9	63,302
581,1	63,913
581,3	64,313
581,6	61,56
581,8	63,167
582,1	62,657
582,3	63,51
582,5	63,366
582,8	65,015
583	67,01
583,3	68,933
583,5	68,824
583,7	69,751
584	67,794
584,2	68,254
584,5	67,507
584,7	67,292
584,9	68,058
585,2	68,039
585,4	68,786
585,7	68,729
585,9	68,56
586,1	68,032
586,4	66,81
586,6	67,47
586,9	67,081
587,1	66,599
587,3	66,542
587,6	66,602
587,8	65,584
588,1	65,139
588,3	63,385
588,5	63,197
588,8	61,96
589	64,196
589,3	63,453
589,5	62,28
589,7	63,495
590	62,869
590,2	62,05
590,5	60,123
590,7	59,448
590,9	60,873
591,2	60,413
591,4	60,006
591,7	61,503
591,9	64,136
592,1	63,8
592,4	64,14
592,6	63,174
592,9	63,125
593,1	63,789
593,3	64,585
593,6	65,131
593,8	66,632
594,1	67,394
594,3	68,307
594,5	68,613
594,8	68,126
595	69,48
595,3	71,151
595,5	73,481
595,7	75,409
596	76,687
596,2	78,893
596,4	82,525
596,7	83,54
596,9	84,856
597,2	83,001
597,4	85,577
597,6	85,03
597,9	84,969
598,1	85,867
598,4	87,338
598,6	88,699
598,8	89,446
599,1	87,621
599,3	88,243
599,6	89,295
599,8	89,503
600	92,063
600,3	92,927
600,5	92,135
600,7	93,791
601	95,118
601,2	95,141
601,5	94,466
601,7	95,167
601,9	96,751
602,2	99,603
602,4	99,365
602,7	97,917
602,9	97,577
603,1	98,188
603,4	97,709
603,6	97,336
603,9	96,118
604,1	96,419
604,3	97,581
604,6	99,293
604,8	98,995
605	100,643
605,3	101,292
605,5	100,455
605,8	99,357
606	99,569
606,2	100,598
606,5	101,021
606,7	97,943
607	96,744
607,2	95,62
607,4	92,803
607,7	92,18
607,9	92,678
608,1	93,493
608,4	92,923
608,6	92,927
608,9	93,7
609,1	93,493
609,3	92,388
609,6	91,826
609,8	92,169
610,1	92,806
610,3	89,288
610,5	87,877
610,8	87,089
611	86,832
611,2	85,648
611,5	85,154
611,7	83,023
612	83,144
612,2	81,948
612,4	81,111
612,7	80,119
612,9	81,27
613,1	79,452
613,4	79,516
613,6	78,588
613,9	77,928
614,1	77,117
614,3	77,434
614,6	77,834
614,8	79,538
615	78,792
615,3	78,799
615,5	77,917
615,8	75,974
616	75,484
616,2	73,127
616,5	74,243
616,7	75,126
616,9	73,38
617,2	72,754
617,4	73,621
617,7	75,201
617,9	74,519
618,1	74,074
618,4	73,387
618,6	71,796
618,8	73,006
619,1	74,881
619,3	73,644
619,6	72,407
619,8	71,483
620	70,86
620,3	70,091
620,5	71,011
620,7	68,975
621	67,545
621,2	66,768
621,5	67,217
621,7	67,998
621,9	67,568
622,2	66,21
622,4	67,387
622,6	66,987
622,9	65,207
623,1	67,081
623,4	66,161
623,6	67,078
623,8	66,44
624,1	64,686
624,3	65,761
624,5	66,274
624,8	66,444
625	66,059
625,3	67,662
625,5	68,296
625,7	69,997
626	69,601
626,2	68,963
626,4	68,066
626,7	67,413
626,9	67,986
627,1	68,311
627,4	68,465
627,6	67,82
627,9	68,167
628,1	68,484
628,3	69,137
628,6	69,386
628,8	70,604
629	69,503
629,3	70,2
629,5	71,234
629,8	68,854
630	69,706
630,2	69,71
630,5	69,035
630,7	69,687
630,9	69,254
631,2	67,624
631,4	68,141
631,6	66,704
631,9	65,429
632,1	64,128
632,4	63,992
632,6	62,703
632,8	63,28
633,1	61,99
633,3	63,238
633,5	62,243
633,8	61,775
634	63,657
634,2	64,981
634,5	64,419
634,7	65,999
635	65,226
635,2	64,551
635,4	65,897
635,7	67,044
635,9	66,912
636,1	66,203
636,4	65,935
636,6	64,094
636,8	63,536
637,1	65,362
637,3	65,075
637,5	65,788
637,8	66,052
638	66,218
638,3	66,067
638,5	66,817
638,7	66,225
639	68,669
639,2	70,374
639,4	69,586
639,7	70,283
639,9	69,552
640,1	71,92
640,4	73,926
640,6	72,765
640,9	74,021
641,1	74,956
641,3	74,515
641,6	74,488
641,8	75,518
642	73,527
642,3	74,141
642,5	74,73
642,7	72,305
643	73,3
643,2	72,584
643,4	71,811
643,7	71,943
643,9	72,769
644,1	72,648
644,4	73,549
644,6	73,836
644,9	74,224
645,1	74,458
645,3	74,228
645,6	74,541
645,8	73,47
646	74,749
646,3	72,976
646,5	71,471
646,7	73,319
647	73,414
647,2	73,629
647,4	71,796
647,7	69,695
647,9	71,615
648,1	72,652
648,4	71,385
648,6	71,928
648,9	72,052
649,1	73,957
649,3	77,211
649,6	77,8
649,8	78,158
650	80,1
650,3	77,773
650,5	79,157
650,7	79,444
651	79,437
651,2	81,043
651,4	80,459
651,7	78,086
651,9	77,69
652,1	78,396
652,4	78,599
652,6	80,41
652,8	81,043
653,1	82,144
653,3	82,05
653,5	82,989
653,8	83,762
654	84,69
654,3	84,075
654,5	84,63
654,7	82,846
655	82,439
655,2	82,318
655,4	80,308
655,7	82,322
655,9	83,902
656,1	85,422
656,4	82,899
656,6	81,16
656,8	86,316
657,1	88,597
657,3	88,243
657,5	88,45
657,8	89,684
658	90,676
658,2	92,131
658,5	90,898
658,7	92,252
658,9	93,606
659,2	93,233
659,4	91,664
659,6	91,935
659,9	91,562
660,1	90,736
660,3	90,86
660,6	89,721
660,8	89,254
661	88,692
661,3	87,025
661,5	86,252
661,8	86,727
662	87,164
662,2	88,462
662,5	88,428
662,7	90,223
662,9	88,496
663,2	87,888
663,4	83,91
663,6	83,827
663,9	85,433
664,1	80,059
664,3	78,618
664,6	79,535
664,8	78,452
665	78,505
665,3	79,263
665,5	78,837
665,7	81,134
666	81,454
666,2	81,168
666,4	81,402
666,7	81,707
666,9	81,175
667,1	81,047
667,4	82,129
667,6	82,329
667,8	83,302
668,1	83,732
668,3	83,913
668,5	85,018
668,8	86,263
669	85,678
669,2	88,069
669,5	89,042
669,7	88,903
669,9	87,387
670,2	87,915
670,4	87,334
670,6	88,782
670,9	90,347
671,1	88,228
671,3	88,941
671,6	87,655
671,8	88,258
672	89,408
672,3	89,755
672,5	90,6
672,7	89,205
673	89,537
673,2	88,25
673,4	90,517
673,7	91,501
673,9	92,286
674,1	92,003
674,4	92,158
674,6	92,256
674,8	91,501
675,1	91,162
675,3	90,362
675,5	92,033
675,8	91,656
676	91,924
676,2	93,915
676,5	92,222
676,7	92,614
676,9	91,852
677,2	91,641
677,4	91,479
677,6	91,215
677,9	91,694
678,1	91,219
678,3	92,806
678,5	92,297
678,8	91,901
679	91,913
679,2	92,757
679,5	93,217
679,7	91,49
679,9	93,44
680,2	91,136
680,4	93,738
680,6	91,569
680,9	91,509
681,1	91,679
681,3	93,681
681,6	92,938
681,8	93,297
682	94,036
682,3	95,767
682,5	96,834
682,7	94,473
683	93,874
683,2	92,678
683,4	90,57
683,7	89,642
683,9	90,257
684,1	91,192
684,4	92,554
684,6	92,029
684,8	90,94
685,1	90,038
685,3	89,627
685,5	89,484
685,7	88,571
686	89,095
686,2	88,262
686,4	87,673
686,7	85,55
686,9	85,362
687,1	83,894
687,4	84,385
687,6	81,715
687,8	81,684
688,1	81,383
688,3	80,96
688,5	78,686
688,8	81,164
689	79,708
689,2	81,13
689,5	80,259
689,7	79,052
689,9	78,437
690,2	77,766
690,4	78,347
690,6	77,988
690,8	78,43
691,1	76,619
691,3	75,265
691,5	73,855
691,8	72,693
692	74,545
692,2	77,083
692,5	75,707
692,7	75,48
692,9	75,688
693,2	75,039
693,4	74,39
693,6	74,062
693,9	74,549
694,1	75,16
694,3	75,959
694,5	75,778
694,8	75,922
695	75,839
695,2	74,696
695,5	73,972
695,7	74,62
695,9	73,274
696,2	72,852
696,4	71,313
696,6	70,985
696,9	70,917
697,1	74,213
697,3	76,027
697,6	76,876
697,8	77,076
698	78,298
698,2	76,876
698,5	78,407
698,7	79,629
698,9	81,541
699,2	80,643
699,4	77,396
699,6	79,097
699,9	77,325
700,1	77,377
700,3	78,761
700,6	79,131
700,8	79,561
701	79,81
701,2	79,222
701,5	78,761
701,7	79,644
701,9	78,98
702,2	80,489
702,4	82,737
702,6	82,921
702,9	82,261
703,1	80,56
703,3	82,642
703,6	83,204
703,8	82,797
704	83,868
704,2	80,821
704,5	79,784
704,7	79,633
704,9	79,995
705,2	79,403
705,4	80,843
705,6	80,406
705,9	80,904
706,1	81,85
706,3	80,764
706,5	80,515
706,8	79,482
707	80,432
707,2	80,953
707,5	80,334
707,7	79,576
707,9	79,791
708,2	79,01
708,4	79,55
708,6	79,414
708,8	78,347
709,1	79,289
709,3	77,392
709,5	75,45
709,8	76,016
710	77,132
710,2	77,064
710,5	75,465
710,7	73,874
710,9	73,945
711,1	72,192
711,4	72,275
711,6	72,063
711,8	71,381
712,1	71,871
712,3	72,007
712,5	72,18
712,8	73,104
713	70,476
713,2	68,284
713,4	68,714
713,7	68,62
713,9	68,341
714,1	68,805
714,4	67,76
714,6	66,523
714,8	64,871
715,1	64,211
715,3	63,906
715,5	61,334
715,7	59,516
716	57,438
716,2	55,533
716,4	54,658
716,7	52,708
716,9	52,422
717,1	49,503
717,3	50,068
717,6	49,8
717,8	49,118
718	47,613
718,3	46,825
718,5	46,519
718,7	46,361
718,9	45,889
719,2	43,057
719,4	42,258
719,6	39,489
719,9	37,245
720,1	38,241
720,3	37,415
720,6	34,632
720,8	33,904
721	33,768
721,2	32,459
721,5	31,456
721,7	31,102
721,9	31,603
722,2	30,313
722,4	29,397
722,6	31,928
722,8	33,9
723,1	36,446
723,3	37,803
723,5	37,811
723,8	39,014
724	36,917
724,2	37,204
724,4	37,377
724,7	38,678
724,9	39,478
725,1	40,685
725,4	43,012
725,6	41,824
725,8	40,885
726	39,953
726,3	39,157
726,5	38,513
726,7	38,648
727	36,981
727,2	34,99
727,4	35,756
727,6	37,377
727,9	38,347
728,1	37,313
728,3	36,246
728,6	37,66
728,8	38,52
729	38,264
729,2	39,885
729,5	40,417
729,7	39,169
729,9	38,256
730,2	37,072
730,4	37,306
730,6	37,785
730,8	36,883
731,1	38,513
731,3	39,403
731,5	37,751
731,7	35,65
732	35,526
732,2	35,235
732,4	34,341
732,7	36,069
732,9	36,186
733,1	36,001
733,3	37,453
733,6	37,649
733,8	38,652
734	42,767
734,3	44,226
734,5	45,671
734,7	46,097
734,9	45,328
735,2	48,069
735,4	49,619
735,6	49,035
735,9	49,386
736,1	50,253
736,3	50,981
736,5	51,136
736,8	51,087
737	50,381
737,2	49,714
737,4	48,514
737,7	48,571
737,9	51,445
738,1	50,668
738,4	50,74
738,6	51,219
738,8	51,562
739	50,521
739,3	50,449
739,5	48,952
739,7	48,439
739,9	51,249
740,2	53,595
740,4	52,35
740,6	51,396
740,9	50,958
741,1	49,612
741,3	49,212
741,5	47,304
741,8	47,217
742	48,514
742,2	48,183
742,4	47,983
742,7	49,499
742,9	49,487
743,1	47,82
743,4	45,822
743,6	45,569
743,8	45,844
744	47,779
744,3	49,174
744,5	49,159
744,7	49,65
744,9	49,355
745,2	51,351
745,4	50,302
745,6	50,777
745,8	51,516
746,1	52,78
746,3	54,843
746,5	57,732
746,8	56,457
747	55,145
747,2	55,401
747,4	58,252
747,7	59,444
747,9	60,708
748,1	59,233
748,3	59,987
748,6	61,3
748,8	60,466
749	59,723
749,2	58,256
749,5	58,501
749,7	57,366
749,9	56,295
750,2	59,218
750,4	59,821
750,6	60,364
750,8	58,995
751,1	57,619
751,3	56,25
751,5	57,788
751,7	58,72
752	56,891
752,2	55,805
752,4	55,473
752,6	54,56
752,9	53,983
753,1	53,451
753,3	52,161
753,5	50,423
753,8	52,158
754	51,271
754,2	50,121
754,4	49,11
754,7	47,873
754,9	47,206
755,1	47,372
755,4	46,493
755,6	46,568
755,8	47,013
756	45,848
756,3	44,735
756,5	43,185
756,7	41,511
756,9	41,194
757,2	37,875
757,4	36,408
757,6	33,055
757,8	31,777
758,1	31,811
758,3	32,467
758,5	29,638
758,7	26,715
759	24,539
759,2	24,939
759,4	24,622
759,6	25,124
759,9	24,762
760,1	24,566
760,3	21,801
760,5	21,028
760,8	19,082
761	18,056
761,2	16,68
761,4	16,457
761,7	17,788
761,9	18,011
762,1	17,819
762,3	17,385
762,6	14,749
762,8	13,749
763	13,613
763,2	16,189
763,5	16,51
763,7	16,872
763,9	17,562
764,1	18,286
764,4	18,245
764,6	20,575
764,8	22,386
765	21,39
765,3	19,263
765,5	19,878
765,7	20,074
765,9	21,217
766,2	20,296
766,4	20,994
766,6	19,746
766,8	19,429
767,1	18,743
767,3	20,266
767,5	20,734
767,7	21,986
768	22,261
768,2	23,272
768,4	22,231
768,6	20,142
768,9	18,422
769,1	18,644
769,3	20,014
769,5	20,161
769,8	21,39
770	22,94
770,2	20,783
770,4	21,662
770,7	22,122
770,9	22,012
771,1	21,647
771,3	23,061
771,6	22,095
771,8	22,804
772	21,986
772,2	21,696
772,5	23,076
772,7	23,302
772,9	23,389
773,1	22,62
773,4	23,623
773,6	24,419
773,8	23,144
774	23,653
774,3	23,483
774,5	22,672
774,7	21,296
774,9	21,137
775,2	21,322
775,4	22,918
775,6	23,087
775,8	24,72
776	26,138
776,3	25,705
776,5	26,614
776,7	25,938
776,9	25,833
777,2	25,678
777,4	24,645
777,6	23,925
777,8	24,317
778,1	25,041
778,3	23,668
778,5	23,638
778,7	22,914
779	22,42
779,2	24,683
779,4	23,148
779,6	23,404
779,9	23,249
780,1	23,423
780,3	21,982
780,5	20,364
780,7	21,247
781	22,344
781,2	22,654
781,4	21,575
781,6	22,265
781,9	22,073
782,1	20,202
782,3	19,361
782,5	19,123
782,8	17,89
783	18,064
783,2	16,868
783,4	16,476
783,7	16,227
783,9	14,337
784,1	13,727
784,3	13,376
784,5	13,304
784,8	11,12
785	10,732
785,2	10,589
785,4	10,823
785,7	9,314
785,9	11,701
786,1	10,521
786,3	10,559
786,6	10,634
786,8	10,917
787	10,811
787,2	11,747
787,4	12,584
787,7	12,489
787,9	11,837
788,1	11,664
788,3	12,633
788,6	12,467
788,8	11,562
789	10,996
789,2	9,914
789,5	10,306
789,7	8,952
789,9	7,255
790,1	6,233
790,3	6,063
790,6	6,338
790,8	6,885
791	7,176
791,2	8,986
791,5	10,936
791,7	11,728
791,9	11,509
792,1	10,853
792,3	10,117
792,6	10,362
792,8	8,367
793	10,14
793,2	11,573
793,5	11,645
793,7	11,615
793,9	11,007
794,1	9,321
794,3	9,389
794,6	10,427
794,8	9,276
795	8,956
795,2	7,673
795,5	7,798
795,7	7,888
795,9	9,661
796,1	9,582
796,3	8,631
796,6	11,449
796,8	11,388
797	13,059
797,2	14,172
797,5	14,794
797,7	15,22
797,9	13,798
798,1	13,455
798,3	21,217
798,6	21,669
798,8	23,845
799	25,633
799,2	25,512
799,5	27,006
799,7	28,431
799,9	26,557
800,1	24,245
800,3	24,041
800,6	24,332
800,8	25,471
801	26,927
801,2	25,614
801,5	25,663
801,7	25,267
801,9	25,829
802,1	27,873
802,3	28,699
802,6	28,352
802,8	26,7
803	27,334
803,2	29,103
803,4	26,617
803,7	27,311
803,9	26,519
804,1	25,908
804,3	25,226
804,6	25,082
804,8	27,243
805	25,535
805,2	15,654
805,4	14,288
805,7	12,663
805,9	10,838
806,1	12,214
806,3	11,358
806,5	10,683
806,8	9,91
807	11,105
807,2	10,743
807,4	10,762
807,6	8,499
807,9	7,077
808,1	8,824
808,3	8,835
808,5	11,452
808,8	12,075
809	10,11
809,2	10,543
809,4	10,694
809,6	10,427
809,9	9,702
810,1	7,507
810,3	9,201
810,5	8,786
810,7	7,519
811	6,61
811,2	6,285
811,4	6,101
811,6	5,067
811,8	6,055
812,1	6,746
812,3	7,221
812,5	6,516
812,7	6,24
812,9	6,21
813,2	6,862
813,4	5,818
813,6	6,255
813,8	6,021
814	5,799
814,3	4,551
814,5	6,542
814,7	5,98
814,9	3,996
815,2	3,981
815,4	2,405
815,6	1,341
815,8	1,168
816	-0,077
816,3	0,492
816,5	0,27
816,7	1,205
816,9	2,352
817,1	1,748
817,4	-0,066
817,6	0,666
817,8	0,417
818	-0,111
818,2	-1,205
818,5	-1,378
818,7	-3,328
818,9	-4,761
819,1	-2,909
819,3	-1,891
819,6	-0,028
819,8	1,432
820	-0,892
820,2	-0,918
820,4	-0,948
820,7	-0,933
820,9	0,002
821,1	1,484
821,3	0,153
821,5	1,684
821,8	2,887
822	1,481
822,2	1,748
822,4	0,685
822,6	0,806
822,9	0,772
823,1	-0,858
823,3	0,545
823,5	-1,555
823,7	0,376
823,9	-1,084
824,2	-1,51
824,4	-2
824,6	-1,201
824,8	-2,408
825	-1,476
825,3	-1,933
825,5	-0,522
825,7	-0,036
825,9	-2,212
826,1	-3,716
826,4	-4,629
826,6	-7,744
826,8	-7,435
827	-6,828
827,2	-6,077
827,5	-5,448
827,7	-5,357
827,9	-5,855
828,1	-4,874
828,3	-5,003
828,6	-5,312
828,8	-5,006
829	-6,1
829,2	-5,708
829,4	-3,336
829,6	-3,762
829,9	-2,868
830,1	-3,867
830,3	-3,181
830,5	-4,825
830,7	-4,38
831	-2,43
831,2	-2,072
831,4	-2,415
831,6	-1,446
831,8	-2,023
832,1	-0,76
832,3	-0,922
832,5	-0,224
832,7	-0,175
832,9	-0,171
833,1	0,153
833,4	1,247
833,6	2,654
833,8	3,325
834	2,782
834,2	2,94
834,5	1,843
834,7	0,172
834,9	-1,201
835,1	-1,823
835,3	-1,955
835,5	-2,532
835,8	-2,053
836	-1,114
836,2	-2,815
836,4	-1,834
836,6	-2,468
836,9	-3,637
837,1	-2,936
837,3	-3,328
837,5	-3,464
837,7	-4,475
837,9	-5,142
838,2	-4,18
838,4	-5,131
838,6	-3,856
838,8	-4,09
839	-4,561
839,3	-3,683
839,5	-2,457
839,7	-2,14
839,9	-3,105
840,1	-3,671
840,3	-1,993
840,6	-3,826
840,8	-2,762
841	-4,112
841,2	-3,098
841,4	-1,729
841,7	-0,579
841,9	-1,257
842,1	-1,936
842,3	-0,677
842,5	-1,099
842,7	-0,718
843	-1,386
843,2	-2,57
843,4	0,481
843,6	1,586
843,8	2,827
844	2,687
844,3	2,88
844,5	2,695
844,7	2,171
844,9	2,205
845,1	2,193
845,4	1,394
845,6	1,16
845,8	2,733
846	0,806
846,2	-0,051
846,4	1,047
846,7	1,986
846,9	3,008
847,1	1,579
847,3	2,657
847,5	2,216
847,7	2,62
848	1,322
848,2	0,922
848,4	1,051
848,6	1,416
848,8	1,364
849	0,851
849,3	1,326
849,5	1,205
849,7	0,76
849,9	-0,432
850,1	-3,49
850,3	-1,435
850,6	-2,966
850,8	-3,701
851	-4,859
851,2	-4,444
851,4	-3,713
851,6	-5,267
851,9	-4,769
852,1	-3,468
852,3	-5,715
852,5	-7,118
852,7	-6,138
852,9	-4,527
853,2	-4,599
853,4	-5,055
853,6	-6,896
853,8	-7,846
854	-9,743
854,2	-9,419
854,5	-8,981
854,7	-9,027
854,9	-8,676
855,1	-8,695
855,3	-7,676
855,5	-5,949
855,8	-6,983
856	-8,996
856,2	-10,848
856,4	-8,37
856,6	-7,005
856,8	-7,122
857,1	-6,413
857,3	-7,228
857,5	-6,07
857,7	-4,135
857,9	-3,83
858,1	-1,676
858,4	-2,63
858,6	-2,445
858,8	-3,698
859	-2,166
859,2	-2,755
859,4	-2,962
859,7	-4,927
859,9	-5,911
860,1	-6,869
860,3	-6,413
860,5	-6,884
860,7	-6,153
860,9	-8,012
861,2	-7,367
861,4	-6,847
861,6	-6,356
861,8	-6,104
862	-6,564
862,2	-6,911
862,5	-6,447
862,7	-5,372
862,9	-4,821
863,1	-6,028
863,3	-6,036
863,5	-5,587
863,8	-8,691
864	-6,553
864,2	-6,458
864,4	-7,33
864,6	-8,442
864,8	-10,264
865	-8,883
865,3	-7,669
865,5	-8,34
865,7	-7,782
865,9	-7,081
866,1	-8,717
866,3	-8,827
866,6	-7,65
866,8	-7,424
867	-7,786
867,2	-7,318
867,4	-6,764
867,6	-6,168
867,8	-7,152
868,1	-7,631
868,3	-8,14
868,5	-9,049
868,7	-10,29
868,9	-10,26
869,1	-9,068
869,3	-8,223
869,6	-8,623
869,8	-8,763
870	-9,37
870,2	-9,027
870,4	-8,831
870,6	-9,992
870,9	-9,939
871,1	-10,833
871,3	-11,112
871,5	-11,497
871,7	-10,007
871,9	-12,391
872,1	-12,462
872,4	-13,428
872,6	-13,96
872,8	-11,697
873	-11,776
873,2	-12,342
873,4	-10,373
873,6	-9,751
873,9	-9,574
874,1	-10,06
874,3	-10,083
874,5	-10,863
874,7	-11,772
874,9	-12,538
875,1	-12,723
875,4	-13,051
875,6	-14,948
875,8	-14,778
876	-13,209
876,2	-12,085
876,4	-13,843
876,6	-13,481
876,9	-12,851
877,1	-12,44
877,3	-12,429
877,5	-13,948
877,7	-12,753
877,9	-11,361
878,1	-12,395
878,4	-14,393
878,6	-13,085
878,8	-12,349
879	-12,866
879,2	-11,169
879,4	-13,379
879,6	-12,538
879,9	-13,775
880,1	-14,288
880,3	-14,303
880,5	-13,42
880,7	-11,712
880,9	-11,286
881,1	-10,724
881,3	-10,294
881,6	-10,237
881,8	-11,237
882	-10,433
882,2	-7,922
882,4	-8,616
882,6	-10,479
882,8	-11,109
883,1	-9,649
883,3	-9,641
883,5	-10,301
883,7	-8,585
883,9	-8,748
884,1	-7,952
884,3	-9,755
884,6	-10,795
884,8	-8,155
885	-7,918
885,2	-8,717
885,4	-9,89
885,6	-8,838
885,8	-10,102
886	-8,529
886,3	-9,336
886,5	-8,687
886,7	-8,985
886,9	-7,986
887,1	-8,374
887,3	-9,743
887,5	-9,777
887,8	-8,619
888	-8,559
888,2	-7,699
888,4	-7,186
888,6	-6,866
888,8	-8,216
889	-7,465
889,2	-7,748
889,5	-9,381
889,7	-9,272
889,9	-7,348
890,1	-8,333
890,3	-10,437
890,5	-10,071
890,7	-10,245
890,9	-8,966
891,2	-8,284
891,4	-10,162
891,6	-9,562
891,8	-8,201
892	-8,065
892,2	-8,472
892,4	-10,298
892,6	-11,169
892,9	-11,406
893,1	-11,184
893,3	-10,713
893,5	-12,131
893,7	-12,655
893,9	-11,923
894,1	-12,379
894,3	-13,036
894,6	-13,575
894,8	-13,666
895	-12,432
895,2	-12,082
895,4	-12,063
895,6	-14,224
895,8	-13,681
896	-11,44
896,3	-12,519
896,5	-14,691
896,7	-12,693
896,9	-12,402
897,1	-13,039
897,3	-13,699
897,5	-13,914
897,7	-14,129
898	-12,825
898,2	-14,148
898,4	-16,072
898,6	-15,284
898,8	-15,574
899	-13,164
899,2	-11,146
899,4	-9,528
899,6	-9,562
899,9	-10,415
900,1	-8,638
900,3	-8,314
900,5	-8,355
900,7	-8,487
900,9	-10,037
901,1	-8,861
901,3	-9,977
901,6	-10,78
901,8	-10,927
902	-12,055
902,2	-12,002
902,4	-13,202
902,6	-14,359
902,8	-14,277
903	-14,393
903,2	-16,079
903,5	-15,966
903,7	-16,128
903,9	-16
904,1	-15,857
904,3	-15,336
904,5	-16,177
904,7	-15,069
904,9	-13,684
905,1	-14,171
905,4	-12,73
905,6	-13,843
905,8	-15,069
906	-15,608
906,2	-15,668
906,4	-15,393
906,6	-16,37
906,8	-14,616
907	-15,291
907,3	-15,532
907,5	-16,513
907,7	-17,497
907,9	-15,295
908,1	-15,461
908,3	-16,894
908,5	-15,216
908,7	-14,869
908,9	-14,993
909,2	-15,299
909,4	-14,039
909,6	-13,107
909,8	-13,824
910	-14,495
910,2	-13,062
910,4	-12,949
910,6	-12,017
910,8	-13,718
911,1	-10,746
911,3	-8,951
911,5	-9,347
911,7	-9,294
911,9	-9,193
912,1	-8,465
912,3	-9,875
912,5	-9,762
912,7	-9,875
912,9	-9,442
913,2	-9,581
913,4	-11,769
913,6	-9,653
913,8	-9,283
914	-6,47
914,2	-6,507
914,4	-7,333
914,6	-7,748
914,8	-7,005
915,1	-6,009
915,3	-5,508
915,5	-4,222
915,7	-4,124
915,9	-4,135
916,1	-5,221
916,3	-4,927
916,5	-3,98
916,7	-4,984
916,9	-3,151
917,2	-4,09
917,4	-1,718
917,6	-4,754
917,8	-5,866
918	-7,096
918,2	-6,228
918,4	-8,148
918,6	-8,57
918,8	-7,812
919	-8,095
919,2	-5,923
919,5	-5,481
919,7	-6,549
919,9	-6,326
920,1	-8,076
920,3	-8,401
920,5	-8,876
920,7	-8,118
920,9	-9,294
921,1	-8,57
921,3	-9,249
921,6	-11,12
921,8	-11,361
922	-11,621
922,2	-13,171
922,4	-13,292
922,6	-14,05
922,8	-12,787
923	-13,82
923,2	-13,782
923,4	-16,419
923,6	-15,838
923,9	-17,098
924,1	-16,736
924,3	-18,108
924,5	-16,883
924,7	-18,259
924,9	-17,478
925,1	-17,007
925,3	-16,287
925,5	-16,483
925,7	-18,814
925,9	-19,723
926,2	-18,682
926,4	-19,142
926,6	-18,188
926,8	-18,727
927	-19,036
927,2	-18,04
927,4	-17,61
927,6	-18,282
927,8	-16,626
928	-17,788
928,2	-17,939
928,5	-18,572
928,7	-17,143
928,9	-16,539
929,1	-14,831
929,3	-14,495
929,5	-13,179
929,7	-14,537
929,9	-13,881
930,1	-15,204
930,3	-15,661
930,5	-14,801
930,8	-13,337
931	-13,413
931,2	-13,669
931,4	-13,643
931,6	-13,077
931,8	-12,749
932	-12,527
932,2	-13,884
932,4	-15,517
932,6	-16,196
932,8	-16,973
933	-19,074
933,3	-19,191
933,5	-19,485
933,7	-20,326
933,9	-21,427
934,1	-19,953
934,3	-19,775
934,5	-18,534
934,7	-18,617
934,9	-18,893
935,1	-18,448
935,3	-18,866
935,5	-20,892
935,7	-22,31
936	-22,608
936,2	-21,446
936,4	-21,216
936,6	-19,632
936,8	-18,923
937	-20,183
937,2	-21,061
937,4	-20,579
937,6	-20,269
937,8	-19,926
938	-22,415
938,2	-22,755
938,4	-21,989
938,7	-19,964
938,9	-19,451
939,1	-19,078
939,3	-17,15
939,5	-15,416
939,7	-14,657
939,9	-15,695
940,1	-15,34
940,3	-14,013
940,5	-14,774
940,7	-15,593
940,9	-15,001
941,1	-14,74
941,4	-14,688
941,6	-14,842
941,8	-15,781
942	-13,979
942,2	-14,318
942,4	-14,499
942,6	-12,847
942,8	-12,395
943	-13,315
943,2	-13,439
943,4	-13,447
943,6	-13,439
943,8	-14,556
944	-14,073
944,3	-14,216
944,5	-13,831
944,7	-12,217
944,9	-13,021
945,1	-12,3
945,3	-11,188
945,5	-10,037
945,7	-9,905
945,9	-11,184
946,1	-10,339
946,3	-10,535
946,5	-11,357
946,7	-11,701
946,9	-10,867
947,1	-10,603
947,4	-10,897
947,6	-12,466
947,8	-12,085
948	-12,44
948,2	-11,459
948,4	-12,097
948,6	-10,995
948,8	-11,041
949	-12,097
949,2	-11,719
949,4	-11,995
949,6	-12,587
949,8	-11,882
950	-12,304
950,2	-10,003
950,5	-9,913
950,7	-10,467
950,9	-9,332
951,1	-12,429
951,3	-10,863
951,5	-12,051
951,7	-14,435
951,9	-15,744
952,1	-16,464
952,3	-15,042
952,5	-16,098
952,7	-14,431
952,9	-14,001
953,1	-14,212
953,3	-15,389
953,5	-15,612
953,8	-14,548
954	-12,372
954,2	-13,515
954,4	-12,862
954,6	-13,899
954,8	-13,707
955	-13,251
955,2	-11,595
955,4	-12,511
955,6	-14,114
955,8	-13,239
956	-12,432
956,2	-11,999
956,4	-10,912
956,6	-12,308
956,8	-11,965
957	-11,885
957,2	-11,806
957,5	-11,546
957,7	-12,994
957,9	-13,303
958,1	-11,595
958,3	-11,919
958,5	-12,527
958,7	-14,163
958,9	-13,798
959,1	-14,537
959,3	-14,59
959,5	-14,816
959,7	-13,994
959,9	-14,386
960,1	-15,653
960,3	-15,649
960,5	-13,111
960,7	-12,591
960,9	-11,263
961,1	-11,595
961,4	-12,561
961,6	-15,31
961,8	-15,676
962	-15,208
962,2	-13,982
962,4	-16,166
962,6	-15,593
962,8	-17,441
963	-18,342
963,2	-18,987
963,4	-18,976
963,6	-20,367
963,8	-20,345
964	-21,352
964,2	-22,28
964,4	-20,846
964,6	-20,069
964,8	-19,145
965	-18,282
965,2	-19,104
965,5	-18,799
965,7	-18,146
965,9	-17,301
966,1	-18,346
966,3	-16,977
966,5	-14,835
966,7	-17,377
966,9	-18,003
967,1	-19,013
967,3	-19,681
967,5	-18,617
967,7	-19,089
967,9	-17,954
968,1	-16,241
968,3	-13,628
968,5	-14,525
968,7	-12,749
968,9	-13,051
969,1	-11,719
969,3	-9,777
969,5	-10,49
969,7	-9,374
969,9	-7,367
970,2	-6,47
970,4	-5,859
970,6	-5,655
970,8	-6,96
971	-5,165
971,2	-5,387
971,4	-5,316
971,6	-4,554
971,8	-3,841
972	-4,482
972,2	-3,528
972,4	-4,056
972,6	-5,217
972,8	-6,847
973	-5,04
973,2	-5,127
973,4	-6,089
973,6	-6,236
973,8	-6,922
974	-6,126
974,2	-5,874
974,4	-8,269
974,6	-11,018
974,8	-11,063
975	-11,342
975,2	-12,346
975,5	-12,957
975,7	-12,862
975,9	-10,988
976,1	-11,501
976,3	-12,813
976,5	-11,655
976,7	-12,217
976,9	-10,894
977,1	-11,761
977,3	-13,062
977,5	-14,642
977,7	-14,586
977,9	-13,405
978,1	-13,601
978,3	-13,236
978,5	-14,435
978,7	-13,711
978,9	-13,119
979,1	-13,307
979,3	-12,142
979,5	-12,764
979,7	-12,421
979,9	-12,368
980,1	-14,024
980,3	-14,427
980,5	-15,031
980,7	-13,239
980,9	-11,399
981,1	-12,376
981,3	-11,406
981,5	-11,561
981,7	-12,255
981,9	-13,296
982,2	-13,156
982,4	-13,986
982,6	-12,346
982,8	-14,48
983	-14,152
983,2	-14,046
983,4	-13,571
983,6	-14,092
983,8	-11,697
984	-11,863
984,2	-11,874
984,4	-11,455
984,6	-13,349
984,8	-13,522
985	-11,901
985,2	-11,818
985,4	-11,731
985,6	-14,51
985,8	-13,801
986	-12,04
986,2	-10,784
986,4	-9,853
986,6	-8,193
986,8	-8,729
987	-8,303
987,2	-8,186
987,4	-8,619
987,6	-9,377
987,8	-8,668
988	-7,692
988,2	-8,94
988,4	-9,709
988,6	-9,185
988,8	-11,84
989	-11,033
989,2	-11,693
989,4	-10,724
989,6	-10,49
989,8	-10,614
990	-9,992
990,2	-10,912
990,4	-12,926
990,6	-12,775
990,8	-10,667
991	-10,581
991,3	-12,093
991,5	-12,04
991,7	-12,926
991,9	-12,191
992,1	-12,968
992,3	-12,964
992,5	-13,462
992,7	-12,549
992,9	-13,205
993,1	-12,511
993,3	-13,828
993,5	-15,819
993,7	-14,552
993,9	-13,379
994,1	-13,997
994,3	-14,013
994,5	-12,527
994,7	-12,104
994,9	-11,55
995,1	-10,513
995,3	-9,551
995,5	-8,974
995,7	-10,66
995,9	-9,939
996,1	-10,203
996,3	-13,311
996,5	-13,469
996,7	-13,153
996,9	-13,503
997,1	-15,389
997,3	-16,683
997,5	-16,358
997,7	-16,868
997,9	-16,679
998,1	-14,665
998,3	-14,68
998,5	-15,51
998,7	-15,932
998,9	-15,272
999,1	-15,476
999,3	-15,291
999,5	-15,612
999,7	-16,098
999,9	-17,064
1000,1	-18,512
1000,3	-18,444
1000,5	-18,848
1000,7	-18,912
1000,9	-19,775
1001,1	-20,047
1001,3	-19,892
1001,5	-21,024
1001,7	-21,095
1001,9	-21,318
1002,1	-21,593
1002,3	-20,654
1002,5	-20,375
1002,7	-20,175
1002,9	-20,56
1003,1	-20,982
1003,3	-20,745
1003,5	-19,176
1003,7	-19,617
1003,9	-17,256
1004,1	-16,453
1004,3	-17,633
1004,5	-16,709
1004,7	-16,2
1004,9	-17,071
1005,1	-17,935
1005,3	-17,833
1005,5	-18,885
1005,7	-17,882
1005,9	-17,35
1006,1	-15,906
1006,3	-15,664
1006,5	-16,362
1006,7	-16,015
1006,9	-15,702
1007,1	-15,597
1007,3	-16
1007,5	-15,02
1007,7	-16,226
1007,9	-17,184
1008,1	-17,203
1008,3	-17,629
1008,5	-17,844
1008,7	-15,106
1008,9	-14,756
1009,1	-13,594
1009,3	-14,921
1009,5	-13,994
1009,7	-14,363
1009,9	-14,235
1010,1	-17,701
1010,3	-16,849
1010,5	-17,399
1010,7	-18,387
1010,9	-19,013
1011,1	-18,482
1011,3	-18,923
1011,5	-18,851
1011,7	-18,418
1011,9	-19,44
1012,1	-18,18
1012,3	-18,727
1012,5	-18,972
1012,7	-18,885
1012,9	-18,723
1013,1	-20,039
1013,3	-19,24
1013,5	-18,617
1013,7	-19,387
1013,9	-19,293
1014,1	-18,395
1014,3	-18,335
1014,5	-19,206
1014,7	-19,145
1014,9	-21,544
1015,1	-20,507
1015,3	-21,948
1015,5	-22,102
1015,7	-22,604
1015,9	-22,049
1016,1	-22,804
1016,3	-20,322
1016,5	-22,581
1016,7	-21,367
1016,9	-21,48
1017,1	-22,351
1017,3	-22,826
1017,5	-21,997
1017,7	-22,468
1017,9	-22,204
1018,1	-20,518
1018,3	-21,133
1018,5	-22,095
1018,7	-21,303
1018,9	-20,82
1019,1	-22,185
1019,2	-22,917
1019,4	-23,626
1019,6	-24,214
1019,8	-25,025
1020	-23,864
1020,2	-24,335
1020,4	-22,28
1020,6	-21,801
1020,8	-23,37
1021	-21,529
1021,2	-22,065
1021,4	-20,571
1021,6	-18,799
1021,8	-18,414
1022	-19,673
1022,2	-18,301
1022,4	-18,138
1022,6	-18,312
1022,8	-19,56
1023	-20,047
1023,2	-18,957
1023,4	-19,089
1023,6	-19,707
1023,8	-16,592
1024	-16,562
1024,2	-19,168
1024,4	-18,897
1024,6	-18,614
1024,8	-20,416
1025	-19,734
1025,2	-19,345
1025,4	-16,709
1025,6	-16,758
1025,8	-17,58
1026	-16,373
1026,2	-16,479
1026,4	-15,363
1026,6	-16,728
1026,8	-15,065
1027	-13,782
1027,2	-14,178
1027,4	-14,314
1027,6	-14,054
1027,8	-14,831
1028	-15,589
1028,1	-13,926
1028,3	-15,566
1028,5	-16,792
1028,7	-16,83
1028,9	-17,52
1029,1	-17,033
1029,3	-17,233
1029,5	-16,856
1029,7	-17,448
1029,9	-20,149
1030,1	-17,807
1030,3	-16,702
1030,5	-16,17
1030,7	-14,744
1030,9	-12,187
1031,1	-12,923
1031,3	-13,239
1031,5	-13,892
1031,7	-14,16
1031,9	-13,183
1032,1	-13,239
1032,3	-14,563
1032,5	-16,155
1032,7	-17,901
1032,9	-19,485
1033,1	-20,069
1033,3	-20,16
1033,5	-20,597
1033,7	-21,695
1033,9	-21,978
1034,1	-21,676
1034,3	-20,45
1034,4	-20,175
1034,6	-20,251
1034,8	-18,957
1035	-17,573
1035,2	-18,218
1035,4	-17,169
1035,6	-17,554
1035,8	-16,758
1036	-17,648
1036,2	-20,76
1036,4	-21,092
1036,6	-21,552
1036,8	-23,781
1037	-24,776
1037,2	-24,742
1037,4	-25,372
1037,6	-25,942
1037,8	-25,331
1038	-26,085
1038,2	-26,247
1038,4	-25,983
1038,6	-24,497
1038,8	-22,694
1039	-21,186
1039,2	-21,488
1039,4	-22,694
1039,5	-20,903
1039,7	-21,156
1039,9	-19,432
1040,1	-19,311
1040,3	-20,496
1040,5	-19,021
1040,7	-19,296
1040,9	-19,274
1041,1	-20,745
1041,3	-20,465
1041,5	-22,332
1041,7	-22,159
1041,9	-22,336
1042,1	-22,2
1042,3	-21,544
1042,5	-20,735
1042,7	-21,043
1042,9	-20,066
1043,1	-20,533
1043,3	-20,662
1043,5	-19,019
1043,7	-18,872
1043,8	-19,098
1044	-18,011
1044,2	-18,296
1044,4	-16,51
1044,6	-17,146
1044,8	-17,969
1045	-19,873
1045,2	-19,23
