Data from mesure_FLMT021711__16__38.txt Node

Date: Mon Nov 04 11:52:37 CET 2024
User: jordan.swietlicki
Spectrometer: FLMT02171
Trigger mode: 0
Integration Time (sec): 1,000000E-1
Scans to average: 15
Electric dark correction enabled: true
Nonlinearity correction enabled: false
Boxcar width: 15
XAxis mode: Wavelengths
Number of Pixels in Spectrum: 3648
>>>>>Begin Spectral Data<<<<<
194,7	-37,91
194,9	-37,248
195,2	-32,509
195,5	-32,299
195,7	-28,346
196	-27,302
196,2	-26,019
196,5	-27,76
196,8	-26,72
197	-25,703
197,3	-25,915
197,6	-23,842
197,8	-23,725
198,1	-22,528
198,4	-20,573
198,6	-19,898
198,9	-15,972
199,2	-12,216
199,4	-8,418
199,7	-2,169
200	-2,44
200,2	-4,526
200,5	-4,756
200,7	-5,533
201	-4,141
201,3	-4,141
201,5	-3,934
201,8	-4,107
202,1	-2,621
202,3	-2,968
202,6	-2,357
202,9	-3,394
203,1	-1,769
203,4	-3,583
203,7	-3,259
203,9	-5,046
204,2	-4,337
204,5	-4,066
204,7	-2,131
205	-1,113
205,2	0,011
205,5	1,652
205,8	1,565
206	4,771
206,3	5,261
206,6	6,031
206,8	7,237
207,1	7,543
207,4	9,274
207,6	12,235
207,9	12,566
208,2	13,438
208,4	14,818
208,7	15,033
208,9	17,073
209,2	17,122
209,5	17,149
209,7	17,794
210	17,873
210,3	17,76
210,5	20,034
210,8	19,498
211,1	19,823
211,3	19,28
211,6	19,072
211,9	19,412
212,1	19,936
212,4	19,819
212,6	20,023
212,9	19,717
213,2	18,16
213,4	18,578
213,7	18,929
214	19,351
214,2	16,7
214,5	17,043
214,8	16,153
215	15,237
215,3	17,711
215,5	18,623
215,8	16,534
216,1	16,689
216,3	17,541
216,6	16,436
216,9	17,16
217,1	17,684
217,4	16,904
217,7	17,303
217,9	14,622
218,2	14,245
218,5	14,132
218,7	12,163
219	12,253
219,2	13,012
219,5	14,211
219,8	15,301
220	15,482
220,3	16,681
220,6	17,443
220,8	16,213
221,1	16,451
221,4	16,677
221,6	16,296
221,9	16,866
222,1	16,308
222,4	15,844
222,7	17,198
222,9	15,165
223,2	14,101
223,5	12,284
223,7	13,724
224	13,215
224,2	12,431
224,5	12,419
224,8	13,076
225	11,986
225,3	11,39
225,6	11,326
225,8	12,461
226,1	14,965
226,4	14,335
226,6	13,121
226,9	14,143
227,1	14,746
227,4	14,886
227,7	12,955
227,9	11,786
228,2	12,563
228,5	11,114
228,7	10,107
229	10,541
229,3	11,631
229,5	14,32
229,8	13,298
230	12,423
230,3	11,13
230,6	11,714
230,8	9,629
231,1	11,601
231,4	11,793
231,6	15,882
231,9	13,943
232,1	15,105
232,4	14,43
232,7	13,664
232,9	13,313
233,2	12,578
233,5	12,348
233,7	13,849
234	12,646
234,2	10,896
234,5	12,921
234,8	15,716
235	15,621
235,3	15,84
235,6	15,938
235,8	16,651
236,1	18,129
236,4	17,277
236,6	19,28
236,9	19,385
237,1	20,683
237,4	20,272
237,7	16,029
237,9	15,467
238,2	14,12
238,5	16,085
238,7	16,014
239	16,006
239,2	14,875
239,5	16,749
239,8	13,672
240	12,687
240,3	14,811
240,6	14,788
240,8	15,063
241,1	15,18
241,3	15,833
241,6	15,229
241,9	12,612
242,1	12,944
242,4	14,739
242,7	13,886
242,9	13,004
243,2	12,363
243,4	12,472
243,7	11,518
244	10,515
244,2	9,761
244,5	9,029
244,8	8,437
245	8,667
245,3	9,678
245,5	9,051
245,8	11,107
246,1	11,605
246,3	11,477
246,6	11,145
246,9	12,125
247,1	12,808
247,4	14,29
247,6	15,395
247,9	15,044
248,2	14,999
248,4	12,201
248,7	12,155
248,9	11,378
249,2	10,884
249,5	11,258
249,7	11,529
250	11,307
250,3	10,926
250,5	9,708
250,8	11,409
251	10,285
251,3	11,639
251,6	12,974
251,8	13,457
252,1	13,389
252,4	11,635
252,6	12,148
252,9	10,764
253,1	10,466
253,4	8,169
253,7	8,584
253,9	9,508
254,2	9,979
254,4	10,036
254,7	10,104
255	10,718
255,2	11,326
255,5	9,772
255,8	8,625
256	8,233
256,3	9,036
256,5	8,712
256,8	9,01
257,1	10,043
257,3	9,527
257,6	10,741
257,8	11,718
258,1	13,283
258,4	13,555
258,6	13,973
258,9	12,374
259,2	11,345
259,4	9,749
259,7	6,936
259,9	5,291
260,2	6,54
260,5	8,429
260,7	8,075
261	7,781
261,2	7,004
261,5	7,347
261,8	6,86
262	8,146
262,3	6,932
262,6	7,366
262,8	6,155
263,1	5,05
263,3	3,93
263,6	4,522
263,9	3,308
264,1	2,614
264,4	3,919
264,6	5,333
264,9	4,597
265,2	4,228
265,4	5,352
265,7	4,971
266	3,281
266,2	3,986
266,5	3,375
266,7	1,969
267	0,23
267,3	1,531
267,5	3,526
267,8	6,155
268	8,195
268,3	7,494
268,6	5,887
268,8	8,071
269,1	7,339
269,3	6,841
269,6	6,43
269,9	6,894
270,1	4,047
270,4	6,012
270,6	6,212
270,9	6,325
271,2	5,725
271,4	3,636
271,7	2,338
272	1,882
272,2	3,492
272,5	1,957
272,7	2,206
273	3,937
273,3	4,511
273,5	5,401
273,8	3,673
274	5,631
274,3	3,726
274,6	3,741
274,8	6,374
275,1	7,641
275,3	8,056
275,6	7,464
275,9	5,552
276,1	4,986
276,4	5,242
276,6	6,717
276,9	6,227
277,2	8,373
277,4	9,293
277,7	12,001
277,9	12,088
278,2	13,253
278,5	13,747
278,7	14,147
279	13,404
279,2	13,253
279,5	15,376
279,8	16,014
280	16,56
280,3	14,795
280,5	13,954
280,8	13,875
281,1	12,706
281,3	13,804
281,6	12,088
281,9	13,86
282,1	12,793
282,4	12,891
282,6	13,524
282,9	13,045
283,2	13,162
283,4	12,129
283,7	11,503
283,9	12,201
284,2	12,853
284,5	12,276
284,7	10,466
285	8,818
285,2	7,139
285,5	7,894
285,8	5,778
286	9,266
286,3	10,028
286,5	8,075
286,8	8,557
287,1	9,87
287,3	10,209
287,6	9,101
287,8	10,058
288,1	9,24
288,4	9,315
288,6	12,099
288,9	11,371
289,1	11,846
289,4	9,632
289,7	10,5
289,9	9,794
290,2	11,088
290,4	12,51
290,7	11,499
290,9	9,251
291,2	9,817
291,5	11,982
291,7	12,985
292	13,724
292,2	13,321
292,5	14,531
292,8	16,402
293	15,527
293,3	16,696
293,5	18,491
293,8	18,337
294,1	15,735
294,3	14,309
294,6	14,565
294,8	14,007
295,1	13,8
295,4	14,128
295,6	14,78
295,9	15,512
296,1	14,739
296,4	15,761
296,7	12,906
296,9	13,144
297,2	11,039
297,4	11,771
297,7	10,903
298	11,05
298,2	10,224
298,5	10,737
298,7	12,302
299	14,305
299,3	13,634
299,5	10,726
299,8	10,869
300	10,13
300,3	9,606
300,5	9,282
300,8	7,958
301,1	10,752
301,3	11,239
301,6	9,214
301,8	7,622
302,1	6,792
302,4	6,849
302,6	7,083
302,9	7,381
303,1	6,064
303,4	6,581
303,7	7,452
303,9	4,794
304,2	5,631
304,4	4,861
304,7	6,951
304,9	5,963
305,2	9,138
305,5	9,753
305,7	9,572
306	10,537
306,2	11,141
306,5	10,383
306,8	9,561
307	7,392
307,3	8,094
307,5	9,206
307,8	7,392
308,1	6,457
308,3	8,011
308,6	6,981
308,8	8,286
309,1	8,109
309,3	8,199
309,6	7,151
309,9	9,915
310,1	9,248
310,4	10,353
310,6	10,405
310,9	10,043
311,2	11,254
311,4	10,915
311,7	10,56
311,9	11,56
312,2	12,506
312,5	12,378
312,7	11,756
313	11,48
313,2	11,047
313,5	9,885
313,7	9,312
314	7,581
314,3	6,985
314,5	8,441
314,8	9,508
315	11,473
315,3	10,047
315,6	8,569
315,8	7,999
316,1	8,803
316,3	7,66
316,6	9,074
316,8	8,32
317,1	7,633
317,4	6,155
317,6	5,627
317,9	4,152
318,1	4,296
318,4	4,017
318,6	3,949
318,9	3,492
319,2	2,365
319,4	1,886
319,7	0,679
319,9	0,724
320,2	0,973
320,5	2,338
320,7	2,252
321	2,47
321,2	1,003
321,5	2,399
321,7	2,855
322	4,465
322,3	3,839
322,5	3,089
322,8	1,297
323	0,192
323,3	2,033
323,5	3,304
323,8	5,008
324,1	5,205
324,3	5,94
324,6	5,152
324,8	6,883
325,1	5,031
325,4	6,476
325,6	8,554
325,9	8,618
326,1	10,436
326,4	9,346
326,6	8,931
326,9	9,568
327,2	9,557
327,4	9,87
327,7	11,16
327,9	12,812
328,2	13,521
328,4	12,45
328,7	14,339
329	14,946
329,2	14,946
329,5	13,728
329,7	14,46
330	14,384
330,2	16,379
330,5	16,67
330,8	16,987
331	18,752
331,3	16,564
331,5	16,843
331,8	15,339
332	14,117
332,3	12,182
332,6	12,404
332,8	10,504
333,1	12,702
333,3	13,083
333,6	12,725
333,8	13,4
334,1	12,321
334,4	12,22
334,6	11,756
334,9	10,73
335,1	11,024
335,4	9,926
335,6	10,017
335,9	7,49
336,2	5,586
336,4	5,895
336,7	4,013
336,9	5,389
337,2	5,382
337,4	6,291
337,7	5,205
338	2,764
338,2	2,418
338,5	1,007
338,7	1,03
339	1,097
339,2	3,176
339,5	2,127
339,8	3,33
340	5,08
340,3	5,51
340,5	6
340,8	8,772
341	8,297
341,3	7,158
341,6	6,728
341,8	6,608
342,1	4,888
342,3	5,306
342,6	6,257
342,8	7,569
343,1	7,886
343,4	7,55
343,6	6,483
343,9	8,561
344,1	9,429
344,4	9,266
344,6	8,414
344,9	7,045
345,1	7,407
345,4	6,468
345,7	7,219
345,9	9,293
346,2	7,848
346,4	7,694
346,7	6,781
346,9	6,887
347,2	5,397
347,5	5,857
347,7	5,97
348	4,299
348,2	5,416
348,5	4,933
348,7	6,596
349	6,857
349,2	8,271
349,5	8,81
349,8	9,274
350	9,304
350,3	9,489
350,5	9,893
350,8	9,602
351	9,727
351,3	11,65
351,6	10,654
351,8	9,244
352,1	8,512
352,3	8,806
352,6	9,331
352,8	9,315
353,1	9,459
353,3	10,168
353,6	9,481
353,9	8,456
354,1	7,852
354,4	8,569
354,6	10,85
354,9	9,346
355,1	10,915
355,4	10,998
355,6	11,182
355,9	11,582
356,2	11,386
356,4	11,805
356,7	8,109
356,9	8,158
357,2	7,038
357,4	7,335
357,7	6,212
358	9,704
358,2	9,21
358,5	9,217
358,7	7,777
359	8,776
359,2	9,221
359,5	9,885
359,7	12,11
360	12,472
360,3	13,751
360,5	13,853
360,8	13,558
361	15,207
361,3	14,098
361,5	14,52
361,8	15,199
362	16,843
362,3	17,356
362,6	16,877
362,8	19,223
363,1	19,046
363,3	19,585
363,6	19,898
363,8	21,633
364,1	20,321
364,3	20,238
364,6	20,223
364,8	21,377
365,1	21,527
365,4	22,987
365,6	24,058
365,9	22,915
366,1	23,666
366,4	23,304
366,6	24,624
366,9	25,261
367,1	24,039
367,4	26,819
367,7	26,298
367,9	26,924
368,2	26,385
368,4	24,748
368,7	26,072
368,9	26,178
369,2	24,899
369,4	25,408
369,7	26,083
370	25,476
370,2	24,978
370,5	24,827
370,7	24,247
371	25,533
371,2	25,895
371,5	27,4
371,7	26,924
372	28,139
372,2	28,143
372,5	28,942
372,8	27,087
373	26,14
373,3	23,24
373,5	24,273
373,8	23,308
374	22,712
374,3	24,232
374,5	25,125
374,8	25,733
375	26,049
375,3	24,899
375,6	23,443
375,8	24,33
376,1	25,02
376,3	27,679
376,6	26,347
376,8	24,447
377,1	27,528
377,3	26,559
377,6	25,706
377,8	26,257
378,1	27,698
378,4	27,396
378,6	26,589
378,9	24,051
379,1	24,858
379,4	22,885
379,6	21,659
379,9	19,808
380,1	20,189
380,4	20,14
380,6	21,056
380,9	21,056
381,2	22,071
381,4	21,871
381,7	22,761
381,9	24,069
382,2	23,345
382,4	22,61
382,7	20,287
382,9	20,867
383,2	22,353
383,4	23,813
383,7	24,85
383,9	23,161
384,2	22,293
384,5	24,009
384,7	24,477
385	23,311
385,2	24,941
385,5	25,201
385,7	24,922
386	24,763
386,2	25,495
386,5	23,824
386,7	25,016
387	23,854
387,2	24,812
387,5	27,121
387,8	28,844
388	29,859
388,3	30,187
388,5	31,303
388,8	33,479
389	34,29
389,3	32,717
389,5	32,099
389,8	33,091
390	32,171
390,3	32,284
390,5	32,68
390,8	34,72
391,1	33,298
391,3	32,631
391,6	31,68
391,8	32,71
392,1	32,389
392,3	33,106
392,6	33,634
392,8	35,093
393,1	38,292
393,3	40,234
393,6	41,603
393,8	41,509
394,1	43,526
394,4	46,657
394,6	48,195
394,9	49,421
395,1	50,232
395,4	48,821
395,6	50,696
395,9	49,942
396,1	50,387
396,4	50,451
396,6	50,779
396,9	49,655
397,1	50,768
397,4	52,548
397,6	51,25
397,9	52,963
398,2	54,671
398,4	57,017
398,7	56,119
398,9	56,304
399,2	56,711
399,4	57,507
399,7	57,16
399,9	56,968
400,2	56,511
400,4	57,718
400,7	57,828
400,9	55,271
401,2	55,618
401,4	55,81
401,7	55,961
401,9	54,852
402,2	52,201
402,5	51,333
402,7	49,327
403	48,803
403,2	50,108
403,5	49,795
403,7	50,394
404	51,631
404,2	50,983
404,5	51,857
404,7	54,347
405	55,874
405,2	55,818
405,5	57,405
405,7	58,801
406	58,597
406,2	59,351
406,5	60,879
406,7	61,143
407	61,731
407,3	61,158
407,5	62,259
407,8	63,572
408	62,154
408,3	62,033
408,5	63,277
408,8	62,169
409	63,198
409,3	62,874
409,5	63,741
409,8	63,187
410	65,77
410,3	66,057
410,5	69,568
410,8	69,135
411	69,229
411,3	70,145
411,5	70,315
411,8	68,908
412	69,161
412,3	69,259
412,6	69,463
412,8	67,988
413,1	67,038
413,3	67,392
413,6	66,366
413,8	66,532
414,1	64,533
414,3	63,56
414,6	64,801
414,8	64,024
415,1	64,1
415,3	63,76
415,6	65,71
415,8	67,415
416,1	67,822
416,3	66,51
416,6	68,897
416,8	67,004
417,1	69,35
417,3	67,471
417,6	69,101
417,8	69,549
418,1	70,813
418,4	69,998
418,6	71,884
418,9	72,797
419,1	73,004
419,4	73,147
419,6	73,472
419,9	74,407
420,1	73,347
420,4	73,581
420,6	73,966
420,9	73,359
421,1	72,344
421,4	73,468
421,6	72,947
421,9	73,095
422,1	71,529
422,4	71,333
422,6	72,789
422,9	71,782
423,1	72,423
423,4	71,65
423,6	72,023
423,9	72,793
424,1	73,664
424,4	71,918
424,6	71,424
424,9	69,35
425,1	69,878
425,4	67,656
425,6	68,603
425,9	67,358
426,2	67,592
426,4	66,43
426,7	65,499
426,9	64,518
427,2	63,33
427,4	63,323
427,7	62,851
427,9	61,245
428,2	60,426
428,4	61,505
428,7	62,584
428,9	63,47
429,2	63,191
429,4	63,198
429,7	63,296
429,9	62,474
430,2	61,354
430,4	61,946
430,7	64,213
430,9	64,092
431,2	63,681
431,4	63,689
431,7	64,356
431,9	62,972
432,2	64,183
432,4	65,239
432,7	65,333
432,9	67,667
433,2	70,289
433,4	68,595
433,7	69,346
433,9	69,297
434,2	68,904
434,4	68,957
434,7	69,915
434,9	71,801
435,2	71,096
435,4	70,726
435,7	72,389
435,9	72,325
436,2	73,091
436,4	72,914
436,7	72,416
436,9	71,16
437,2	71,473
437,4	73,313
437,7	75,829
437,9	77,213
438,2	76,142
438,4	76,119
438,7	76,017
438,9	75,489
439,2	73,755
439,4	70,209
439,7	71,337
439,9	71,59
440,2	70,952
440,5	71,94
440,7	70,866
441	70,481
441,2	71,669
441,5	71,111
441,7	71,137
442	72,442
442,2	72,898
442,5	71,722
442,7	71,631
443	72,763
443,2	73,909
443,5	73,147
443,7	73,698
444	72,502
444,2	73,408
444,5	74,154
444,7	75,98
445	75,908
445,2	75,361
445,5	73,962
445,7	73,393
446	73,706
446,2	73,577
446,5	74,554
446,7	76,217
447	77,549
447,2	79,498
447,5	80,588
447,7	79,921
448	80,121
448,2	81,086
448,5	80,788
448,7	81,678
449	81,497
449,2	83,036
449,5	83,206
449,7	82,369
450	81,577
450,2	83,134
450,5	82,723
450,7	84,002
451	83,508
451,2	85,25
451,5	84,812
451,7	86,86
452	89,961
452,2	90,918
452,5	90,304
452,7	92,25
452,9	92,793
453,2	94,234
453,4	96,874
453,7	98,733
453,9	98,559
454,2	98,186
454,4	97,899
454,7	100,732
454,9	101,105
455,2	100,743
455,4	102,214
455,7	104,96
455,9	103,44
456,2	105,254
456,4	105,774
456,7	106,6
456,9	106,151
457,2	106,506
457,4	109,787
457,7	112,201
457,9	112,442
458,2	113,792
458,4	115,127
458,7	116,964
458,9	116,693
459,2	118,19
459,4	119,623
459,7	119,785
459,9	119,615
460,2	119,891
460,4	119,416
460,7	122,146
460,9	124,82
461,2	124,477
461,4	124,39
461,7	127,569
461,9	129,116
462,2	129,734
462,4	128,957
462,7	131,492
462,9	131,729
463,2	132,246
463,4	130,866
463,7	134,147
463,9	135,052
464,2	135,689
464,4	136,564
464,7	138,989
464,9	138,669
465,2	138,937
465,4	140,136
465,7	142,651
465,9	144,526
466,2	145,571
466,4	146,461
466,6	148,531
466,9	148,452
467,1	147,932
467,4	148,486
467,6	151,047
467,9	152,25
468,1	153,615
468,4	152,751
468,6	152,559
468,9	152,68
469,1	153,74
469,4	154,483
469,6	156,342
469,9	157,33
470,1	160,728
470,4	160,389
470,6	164,171
470,9	166,943
471,1	169,893
471,4	169,335
471,6	170,176
471,9	172,427
472,1	174,554
472,4	174,969
472,6	179,925
472,9	180,687
473,1	182,09
473,4	184,047
473,6	186,404
473,9	187,166
474,1	189,534
474,3	191,496
474,6	195,591
474,8	196,942
475,1	198,627
475,3	199,265
475,6	202,222
475,8	205,303
476,1	209,237
476,3	210,157
476,6	214,072
476,8	216,791
477,1	220,69
477,3	223,696
477,6	227,837
477,8	228,995
478,1	233,231
478,3	236,089
478,6	240,54
478,8	242,497
479,1	245,178
479,3	247,253
479,6	250,402
479,8	252,797
480,1	257,119
480,3	259,314
480,5	262,727
480,8	264,292
481	267,136
481,3	269,022
481,5	272,544
481,8	274,204
482	278,145
482,3	279,653
482,5	281,592
482,8	283,64
483	286,48
483,3	289,41
483,5	293,385
483,8	295,497
484	298,066
484,3	298,767
484,5	302,867
484,8	305,612
485	307,558
485,2	309,255
485,5	313,774
485,7	316,108
486	318,726
486,2	320,23
486,5	325,609
486,7	329,821
487	335,641
487,2	337,428
487,5	342,207
487,7	346,981
488	348,807
488,2	351,967
488,5	356,165
488,7	358,605
489	361,498
489,2	365,175
489,5	369,595
489,7	373,193
489,9	376,961
490,2	381,422
490,4	386,582
490,7	391,835
490,9	395,433
491,2	397,979
491,4	402,889
491,7	409,787
491,9	415,207
492,2	418,575
492,4	420,891
492,7	426,533
492,9	432,077
493,2	435,158
493,4	438,665
493,6	441,302
493,9	445,695
494,1	446,808
494,4	450,719
494,6	453,382
494,9	456,689
495,1	458,239
495,4	460,615
495,6	465,816
495,9	471,021
496,1	475,795
496,4	480,31
496,6	486,423
496,9	493,148
497,1	496,84
497,3	500,566
497,6	504,221
497,8	510,402
498,1	511,99
498,3	514,8
498,6	517,692
498,8	520,891
499,1	524,854
499,3	528,558
499,6	534,453
499,8	538,307
500,1	540,74
500,3	542,739
500,6	545,892
500,8	548,381
501	553,721
501,3	557,708
501,5	559,676
501,8	565,997
502	572,428
502,3	575,192
502,5	579,929
502,8	586,254
503	592,778
503,3	596,308
503,5	598,62
503,8	603,667
504	606,495
504,2	610,73
504,5	612,843
504,7	618,33
505	621,803
505,2	628,92
505,5	633,653
505,7	640,34
506	645,115
506,2	651,794
506,5	657,18
506,7	660,02
506,9	664,674
507,2	668,95
507,4	671,794
507,7	680,261
507,9	686,763
508,2	693,19
508,4	698,134
508,7	703,09
508,9	707,729
509,2	713,627
509,4	718,658
509,7	721,834
509,9	728,049
510,1	732,541
510,4	735,347
510,6	736,459
510,9	741,038
511,1	745,964
511,4	750,403
511,6	755,585
511,9	757,218
512,1	759,861
512,4	763,81
512,6	767,642
512,8	767,978
513,1	768,441
513,3	769,437
513,6	770,825
513,8	772,281
514,1	772,401
514,3	772,997
514,6	773,469
514,8	772,488
515,1	775,204
515,3	773,906
515,5	775,683
515,8	777,357
516	780,717
516,3	781,724
516,5	783,919
516,8	786,273
517	786,695
517,3	788,864
517,5	791,625
517,7	794,676
518	797,04
518,2	799,394
518,5	802,109
518,7	804,5
519	805,1
519,2	806,801
519,5	809,675
519,7	812,058
520	813,789
520,2	816,807
520,4	821,83
520,7	828,449
520,9	833,627
521,2	838,243
521,4	841,34
521,7	848,702
521,9	854,201
522,2	857,319
522,4	864,067
522,6	867,389
522,9	870,542
523,1	872,477
523,4	873,842
523,6	874,031
523,9	875,739
524,1	876,822
524,4	876,871
524,6	878,044
524,8	877,855
525,1	878,9
525,3	881,321
525,6	884,557
525,8	888,487
526,1	890,493
526,3	892,903
526,6	895,392
526,8	896,961
527	902,222
527,3	904,274
527,5	905,911
527,8	907,099
528	906,733
528,3	908,17
528,5	908,992
528,8	908,626
529	908,377
529,2	910,316
529,5	908,917
529,7	911,606
530	911,244
530,2	912,598
530,5	911,595
530,7	912,368
531	912,881
531,2	915,592
531,4	917,191
531,7	920,423
531,9	922,453
532,2	925,515
532,4	927,484
532,7	929,173
532,9	928,155
533,2	927,212
533,4	925,873
533,6	924,406
533,9	922,826
534,1	921,943
534,4	922,543
534,6	921,419
534,9	921,208
535,1	919,877
535,3	918,979
535,6	919,688
535,8	915,626
536,1	914,883
536,3	915,309
536,6	917,116
536,8	913,756
537,1	914,302
537,3	911,757
537,5	910,15
537,8	909,181
538	910,033
538,3	907,763
538,5	906,631
538,8	905,036
539	902,483
539,2	900,533
539,5	899,601
539,7	897,263
540	896,256
540,2	895,668
540,5	894,197
540,7	893,737
540,9	892,779
541,2	893,322
541,4	895
541,7	897,312
541,9	896,535
542,2	892,5
542,4	890,765
542,7	890,825
542,9	891,47
543,1	890,286
543,4	892,552
543,6	891,693
543,9	890,806
544,1	888,819
544,4	888,211
544,6	887,159
544,8	887,129
545,1	886,891
545,3	886,439
545,6	886,971
545,8	888,064
546,1	887,276
546,3	887,548
546,5	887,329
546,8	887,891
547	887,48
547,3	886,514
547,5	884,519
547,8	882,667
548	882,615
548,2	881,781
548,5	879,601
548,7	878,715
549	875,287
549,2	873,337
549,5	870,742
549,7	869,878
549,9	868,098
550,2	865,409
550,4	863,214
550,7	861,853
550,9	856,984
551,2	856,331
551,4	854,789
551,6	853,774
551,9	852,771
552,1	851,285
552,4	850,376
552,6	846,967
552,9	845,39
553,1	842,275
553,3	839,567
553,6	838,639
553,8	834,457
554,1	834,302
554,3	830,222
554,5	826,009
554,8	822,294
555	819,345
555,3	815,049
555,5	812,134
555,8	807,665
556	804,908
556,2	799,281
556,5	796,765
556,7	791,545
557	790,783
557,2	787,37
557,5	786,137
557,7	785,126
557,9	781
558,2	777,712
558,4	777,376
558,7	772,767
558,9	771,455
559,2	769,309
559,4	765,647
559,6	764,463
559,9	762,667
560,1	760,08
560,4	758,27
560,6	755,931
560,8	753,465
561,1	749,418
561,3	749,033
561,6	745,364
561,8	743,554
562,1	741,106
562,3	739,688
562,5	738,473
562,8	737,866
563	735,573
563,3	735,562
563,5	734,231
563,7	733,865
564	731,594
564,2	730,659
564,5	727,944
564,7	728,377
565	726,831
565,2	723,554
565,4	722,697
565,7	723,18
565,9	720,216
566,2	719,974
566,4	716,75
566,6	715,407
566,9	714,762
567,1	713,039
567,4	709,754
567,6	709,064
567,9	706,182
568,1	705,496
568,3	704,048
568,6	704,202
568,8	702,867
569,1	700,352
569,3	697,021
569,5	697,078
569,8	697,647
570	697,387
570,3	696,429
570,5	695,709
570,7	693,831
571	693,152
571,2	692,19
571,5	690,663
571,7	687,597
572	685,847
572,2	682,177
572,4	681,453
572,7	680,023
572,9	678,915
573,2	675,509
573,4	672,39
573,6	669,475
573,9	667,555
574,1	664,485
574,4	658,99
574,6	657,112
574,8	652,59
575,1	650,335
575,3	648,321
575,6	644,787
575,8	642,207
576	637,934
576,3	633,974
576,5	634,012
576,8	634,166
577	632,058
577,3	629,807
577,5	625,605
577,7	622,554
578	620,008
578,2	617,9
578,5	614,502
578,7	612,36
578,9	610,84
579,2	608,637
579,4	606,951
579,7	605,413
579,9	601,238
580,1	598,715
580,4	596,214
580,6	594,849
580,9	595,392
581,1	593,242
581,3	591,654
581,6	587,004
581,8	587,698
582,1	585,262
582,3	585,432
582,5	583,067
582,8	582,384
583	581,743
583,3	580,604
583,5	578,209
583,7	577,085
584	573,272
584,2	569,667
584,5	566,601
584,7	563,014
584,9	560,461
585,2	556,406
585,4	552,394
585,7	546,733
585,9	541,109
586,1	536,127
586,4	530,24
586,6	527,204
586,9	521,241
587,1	517,07
587,3	512,382
587,6	509,335
587,8	504,33
588,1	499,469
588,3	493,37
588,5	489,143
588,8	484,375
589	482,437
589,3	478,443
589,5	473,921
589,7	471,979
590	468,592
590,2	464,553
590,5	460,314
590,7	456,576
590,9	455,128
591,2	450,964
591,4	447,845
591,7	447,257
591,9	447,031
592,1	444,149
592,4	443,497
592,6	441,437
592,9	441,057
593,1	441,483
593,3	442,524
593,6	442,09
593,8	443,07
594,1	442,916
594,3	443,38
594,5	442,354
594,8	442,599
595	443,221
595,3	443,519
595,5	445,284
595,7	446,993
596	447,728
596,2	448,418
596,4	451,677
596,7	451,42
596,9	451,315
597,2	449,588
597,4	450,874
597,6	449,844
597,9	448,78
598,1	449,146
598,4	449,516
598,6	451,138
598,8	451,552
599,1	449,346
599,3	448,55
599,6	448,52
599,8	447,97
600	450,014
600,3	449,259
600,5	448,185
600,7	448,799
601	449,523
601,2	448,784
601,5	448,207
601,7	448,588
601,9	448,826
602,2	449,192
602,4	447,411
602,7	446,397
602,9	444,681
603,1	442,825
603,4	441,611
603,6	440,845
603,9	437,64
604,1	436,723
604,3	436,267
604,6	435,079
604,8	433,698
605	433,461
605,3	432,612
605,5	430,598
605,8	427,902
606	426,646
606,2	424,798
606,5	423,844
606,7	418,224
607	415,497
607,2	412,265
607,4	407,46
607,7	404,756
607,9	402,244
608,1	400,336
608,4	396,927
608,6	394,494
608,9	391,854
609,1	388,294
609,3	385,062
609,6	382,271
609,8	380,796
610,1	378,794
610,3	372,608
610,5	370,172
610,8	367,479
611	364,703
611,2	361,86
611,5	359,288
611,7	356,037
612	354,124
612,2	350,787
612,4	347,317
612,7	344,202
612,9	342,656
613,1	339,552
613,4	337,01
613,6	334,849
613,9	332,529
614,1	331,88
614,3	330,96
614,6	330,334
614,8	330,108
615	328,369
615,3	327,419
615,5	325,352
615,8	323,055
616	321,505
616,2	319,951
616,5	319,506
616,7	319,861
616,9	317,9
617,2	315,95
617,4	314,475
617,7	315,622
617,9	313,928
618,1	311,692
618,4	309,395
618,6	306,838
618,8	307,226
619,1	307,166
619,3	305,612
619,6	303,874
619,8	303,372
620	302,701
620,3	301,151
620,5	301,151
620,7	297,998
621	295,969
621,2	294,117
621,5	292,857
621,7	291,948
621,9	289,486
622,2	286,898
622,4	287,294
622,6	285,586
622,9	282,689
623,1	283,73
623,4	281,754
623,6	280,996
623,8	280,442
624,1	277,077
624,3	276,651
624,5	275,588
624,8	274,826
625	273,555
625,3	273,819
625,5	274,204
625,7	274,615
626	274,381
626,2	271,994
626,4	270,391
626,7	268,716
626,9	268,991
627,1	268,365
627,4	266,849
627,6	265,725
627,9	264,639
628,1	264,051
628,3	263,391
628,6	263,063
628,8	263,572
629	262,256
629,3	263,108
629,5	264,647
629,8	261,709
630	261,995
630,2	260,721
630,5	259,106
630,7	259,416
630,9	258,141
631,2	255,938
631,4	256,598
631,6	254,886
631,9	253,378
632,1	252,156
632,4	252,491
632,6	251,383
632,8	250,677
633,1	250,089
633,3	250,421
633,5	248,697
633,8	248,128
634	249,897
634,2	249,172
634,5	247,901
634,7	249,301
635	248,637
635,2	248,524
635,4	250,628
635,7	252,246
635,9	251,386
636,1	250,866
636,4	250,557
636,6	247,181
636,8	246,118
637,1	246,6
637,3	245,239
637,5	245,733
637,8	244,715
638	244,628
638,3	243,689
638,5	244,36
638,7	243,161
639	244,598
639,2	245,605
639,4	244,349
639,7	242,863
639,9	240,939
640,1	243,557
640,4	244,013
640,6	241,807
640,9	243,364
641,1	243,364
641,3	241,117
641,6	240,049
641,8	240,272
642	238,016
642,3	236,893
642,5	235,746
642,7	231,858
643	230,802
643,2	228,313
643,4	225,74
643,7	224,858
643,9	225,465
644,1	223,843
644,4	224,488
644,6	224,009
644,9	223,342
645,1	222,403
645,3	221,592
645,6	220,419
645,8	218,431
646	219,099
646,3	216,87
646,5	214,498
646,7	215,554
647	214,916
647,2	214,305
647,4	210,176
647,7	207,562
647,9	208,539
648,1	207,95
648,4	206,336
648,6	205,261
648,9	205,578
649,1	205,718
649,3	206,827
649,6	206,393
649,8	206,612
650	206,887
650,3	204,451
650,5	206,095
650,7	205,952
651	204,39
651,2	205,529
651,4	203,772
651,7	200,822
651,9	199,929
652,1	199,846
652,4	199,216
652,6	198,895
652,8	198,767
653,1	197,624
653,3	195,207
653,5	194,26
653,8	193,559
654	193,31
654,3	191,563
654,5	191,394
654,7	189,384
655	187,321
655,2	185,22
655,4	182,878
655,7	183,391
655,9	185,039
656,1	185,099
656,4	183,085
656,6	180,83
656,8	186,246
657,1	186,898
657,3	186,265
657,5	185,559
657,8	186,178
658	186,698
658,2	188,343
658,5	186,495
658,7	187,162
658,9	187,694
659,2	186,951
659,4	185,88
659,6	186,449
659,9	185,895
660,1	184,696
660,3	185,608
660,6	185,48
660,8	186,057
661	185,921
661,3	184,741
661,5	183,413
661,8	183,349
662	182,723
662,2	184,56
662,5	184,718
662,7	185,989
662,9	183,406
663,2	182,772
663,4	179,042
663,6	177,85
663,9	179,529
664,1	173,687
664,3	172,016
664,6	172,503
664,8	171,643
665	170,715
665,3	170,142
665,5	168,652
665,7	170,308
666	170,047
666,2	168,969
666,4	169,583
666,7	168,818
666,9	167,26
667,1	166,925
667,4	168,867
667,6	167,709
667,8	167,336
668,1	166,664
668,3	167,29
668,5	167,215
668,8	168,139
669	167,019
669,2	169,9
669,5	169,67
669,7	170,16
669,9	168,905
670,2	169,406
670,4	168,399
670,6	169,632
670,9	171,235
671,1	168,765
671,3	169,033
671,6	167,924
671,8	168,286
672	169,617
672,3	170,123
672,5	171,533
672,7	170,198
673	169,806
673,2	169,433
673,4	172,122
673,7	172,103
673,9	172,19
674,1	172,699
674,4	172,819
674,6	171,605
674,8	171,609
675,1	171,379
675,3	170,82
675,5	171,382
675,8	170,59
676	171,48
676,2	173,698
676,5	171,299
676,7	172,389
676,9	170,862
677,2	170,168
677,4	170,213
677,6	170,085
677,9	169,961
678,1	168,55
678,3	169,414
678,5	168,135
678,8	167,845
679	167,136
679,2	166,381
679,5	166,136
679,7	164,179
679,9	165,454
680,2	162,991
680,4	164,975
680,6	161,407
680,9	161,614
681,1	161,418
681,3	162,237
681,6	160,811
681,8	161,524
682	161,135
682,3	162,614
682,5	163,085
682,7	161,301
683	160,362
683,2	158,446
683,4	156,006
683,7	154,731
683,9	154,403
684,1	154,724
684,4	155,12
684,6	153,921
684,8	151,465
685,1	150,198
685,3	148,599
685,5	148,165
685,7	147,343
686	146,755
686,2	145,91
686,4	145,348
686,7	142,025
686,9	141,924
687,1	139,766
687,4	140,37
687,6	137,458
687,8	138,031
688,1	136,18
688,3	135,444
688,5	133,34
688,8	135,516
689	133,596
689,2	134,856
689,5	132,431
689,7	130,692
689,9	128,354
690,2	127,626
690,4	127,747
690,6	127,128
690,8	127,347
691,1	125,107
691,3	123,64
691,5	122,444
691,8	121,347
692	123,545
692,2	125,676
692,5	125,846
692,7	125,835
692,9	125,533
693,2	125,046
693,4	124,763
693,6	124,19
693,9	126,083
694,1	126,151
694,3	127,192
694,5	127,162
694,8	126,958
695	126,151
695,2	125,608
695,5	125,19
695,7	126,321
695,9	125,329
696,2	124,484
696,4	123,055
696,6	123,059
696,9	122,557
697,1	126,366
697,3	128,365
697,6	128,81
697,8	129,014
698	130,164
698,2	129,357
698,5	130,036
698,7	130,39
698,9	132,755
699,2	131,876
699,4	128,867
699,6	129,425
699,9	126,981
700,1	126,664
700,3	127,328
700,6	127,513
700,8	128,757
701	127,554
701,2	126,585
701,5	126,498
701,7	126,136
701,9	125,152
702,2	126,385
702,4	127,875
702,6	128,867
702,9	127,275
703,1	125,469
703,3	127,807
703,6	128,938
703,8	129,093
704	129,61
704,2	126,091
704,5	124,816
704,7	125,19
704,9	125,02
705,2	124,002
705,4	125,691
705,6	126,019
705,9	126,789
706,1	126,74
706,3	126,001
706,5	125,612
706,8	125,148
707	126,347
707,2	127,207
707,5	126,97
707,7	126,14
707,9	125,133
708,2	125,178
708,4	125,393
708,6	123,945
708,8	123,183
709,1	123,7
709,3	122,225
709,5	120,57
709,8	120,223
710	122,169
710,2	121,422
710,5	119,993
710,7	116,885
710,9	116,628
711,1	115,946
711,4	116,583
711,6	115,825
711,8	115,486
712,1	115,32
712,3	115,188
712,5	114,645
712,8	115,029
713	112,612
713,2	109,123
713,4	108,599
713,7	109,101
713,9	108,656
714,1	108,95
714,4	106,962
714,6	104,643
714,8	103,04
715,1	101,007
715,3	100,204
715,5	97,062
715,7	95,109
716	92,778
716,2	90,877
716,4	89,161
716,7	87,649
716,9	86,875
717,1	82,429
717,3	82,874
717,6	81,056
717,8	80,83
718	79,382
718,3	78,209
718,5	77,586
718,7	77,383
718,9	76,843
719,2	74,614
719,4	73,77
719,6	70,862
719,9	68,444
720,1	69,086
720,3	68,814
720,6	65,842
720,8	64,217
721	63,202
721,2	60,747
721,5	60,668
721,7	60,702
721,9	60,26
722,2	59,597
722,4	59,08
722,6	60,932
722,8	62,15
723,1	64,503
723,3	65,948
723,5	65,876
723,8	65,936
724	63,764
724,2	63,538
724,4	63,553
724,7	65,295
724,9	65,476
725,1	66,049
725,4	67,471
725,6	66,11
725,8	64,824
726	63,651
726,3	62,674
726,5	61,769
726,7	62,289
727	60,607
727,2	58,212
727,4	58,65
727,6	60,151
727,9	61,452
728,1	60,966
728,3	61,448
728,6	62,157
728,8	62,889
729	62,44
729,2	64,186
729,5	63,658
729,7	62,746
729,9	63,651
730,2	62,987
730,4	62,742
730,6	63,711
730,8	62,44
731,1	64,032
731,3	65,744
731,5	64,654
731,7	62,35
732	63,1
732,2	63,096
732,4	62,734
732,7	63,956
732,9	63,843
733,1	63,575
733,3	64,533
733,6	65,94
733,8	66,464
734	71,243
734,3	73,042
734,5	75,719
734,7	77,451
734,9	76,398
735,2	79,182
735,4	79,932
735,6	79,928
735,9	80,868
736,1	82,32
736,3	83,183
736,5	83,002
736,8	84,183
737	82,851
737,2	81,984
737,4	81,128
737,7	82,504
737,9	86,325
738,1	85,227
738,4	85,34
738,6	85,774
738,8	86,355
739	85,122
739,3	85,529
739,5	84,009
739,7	83,602
739,9	87,177
740,2	88,618
740,4	88,686
740,6	87,766
740,9	88,026
741,1	86,593
741,3	85,423
741,5	83,753
741,8	82,44
742	83,677
742,2	83,406
742,4	83,3
742,7	83,919
742,9	83,764
743,1	82,535
743,4	80,298
743,6	80,63
743,8	79,736
744	81,128
744,3	82,421
744,5	82,146
744,7	81,471
744,9	80,762
745,2	83,21
745,4	82,938
745,6	82,727
745,8	83,327
746,1	84,631
746,3	86,004
746,5	89,308
746,8	88,26
747	86,789
747,2	87,011
747,4	89,191
747,7	89,795
747,9	90,583
748,1	88,765
748,3	91,039
748,6	91,669
748,8	90,3
749	89,44
749,2	87
749,5	86,246
749,7	86,178
749,9	84,952
750,2	87,728
750,4	88,923
750,6	89,617
750,8	89,376
751,1	89,165
751,3	87,784
751,5	89,998
751,7	90,602
752	89,327
752,2	89,029
752,4	87,634
752,6	87,528
752,9	87,437
753,1	85,755
753,3	85,239
753,5	84,349
753,8	85,899
754	84,432
754,2	84,137
754,4	82,866
754,7	82,346
754,9	81,237
755,1	81,675
755,4	80,366
755,6	80,822
755,8	82,248
756	80,924
756,3	79,71
756,5	78,288
756,7	75,791
756,9	74,26
757,2	70,247
757,4	68,067
757,6	63,489
757,8	61,199
758,1	60,679
758,3	60,788
758,5	57,598
758,7	53,528
759	50,262
759,2	48,64
759,4	47,947
759,6	47,098
759,9	44,511
760,1	44,371
760,3	41,124
760,5	38,299
760,8	35,252
761	34,701
761,2	32,585
761,4	31,963
761,7	31,416
761,9	31,65
762,1	29,904
762,3	28,546
762,6	25,318
762,8	23,79
763	23,059
763,2	25,883
763,5	26,317
763,7	26,132
763,9	27,056
764,1	28,029
764,4	27,528
764,6	31,394
764,8	33,445
765	32,31
765,3	30,583
765,5	31,258
765,7	32,076
765,9	34,909
766,2	34,516
766,4	36,089
766,6	35,135
766,8	35,968
767,1	35,644
767,3	36,726
767,5	37,782
767,7	39,864
768	39,653
768,2	41,467
768,4	41,067
768,6	39,63
768,9	38,318
769,1	39,016
769,3	40,155
769,5	40,969
769,8	42,357
770	44,054
770,2	41,727
770,4	43,036
770,7	43,941
770,9	44,805
771,1	43,994
771,3	46,287
771,6	45,586
771,8	46,562
772	46
772,2	46,445
772,5	46,743
772,7	47,724
772,9	45,721
773,1	45,318
773,4	44,646
773,6	46,159
773,8	45,159
774	45,103
774,3	45,31
774,5	43,628
774,7	42,508
774,9	42,063
775,2	41,275
775,4	41,874
775,6	41,693
775,8	42,493
776	44,1
776,3	43,421
776,5	43,176
776,7	41,72
776,9	42,304
777,2	42,357
777,4	41,286
777,6	40,777
777,8	40,6
778,1	41,505
778,3	40,004
778,5	39,378
778,7	39,265
779	39,148
779,2	39,857
779,4	39,853
779,6	39,529
779,9	39,985
780,1	40,449
780,3	39,913
780,5	37,507
780,7	37,73
781	38,925
781,2	38,865
781,4	38,627
781,6	38,68
781,9	39,415
782,1	38,054
782,3	36,742
782,5	37,224
782,8	35,719
783	35,938
783,2	35,489
783,4	35,35
783,7	34,965
783,9	32,608
784,1	32,367
784,3	32,438
784,5	31,243
784,8	28,689
785	27,656
785,2	27,075
785,4	26,642
785,7	24,386
785,9	25,348
786,1	24,609
786,3	23,953
786,6	24,288
786,8	25,099
787	24,805
787,2	26,012
787,4	26,823
787,7	27,501
787,9	27,124
788,1	27,113
788,3	27,55
788,6	27,422
788,8	25,386
789	24,145
789,2	24,081
789,5	22,979
789,7	22,538
789,9	20,053
790,1	18,178
790,3	17,877
790,6	18,827
790,8	19,276
791	19,129
791,2	19,966
791,5	22,629
791,7	23,5
791,9	23,168
792,1	23,142
792,3	22,433
792,6	22,614
792,8	20,456
793	21,512
793,2	21,965
793,5	21,407
793,7	21,29
793,9	20,901
794,1	19,427
794,3	19,827
794,6	20,385
794,8	19,133
795	19,219
795,2	19,17
795,5	19,167
795,7	19,966
795,9	21,463
796,1	20,211
796,3	20,366
796,6	21,754
796,8	22,071
797	24,835
797,2	26
797,5	27,245
797,7	27,943
797,9	26,653
798,1	26,789
798,3	33,592
798,6	34,486
798,8	36,972
799	38,265
799,2	39,589
799,5	40,536
799,7	41,807
799,9	40,098
800,1	38,563
800,3	38,182
800,6	37,877
800,8	37,613
801	38,318
801,2	37,847
801,5	38,122
801,7	37,224
801,9	36,515
802,1	37,673
802,3	38,752
802,6	38,933
802,8	37,715
803	39,2
803,2	41,173
803,4	39,977
803,7	41,482
803,9	40,898
804,1	40,935
804,3	39,555
804,6	39,027
804,8	41,079
805	38,967
805,2	29,591
805,4	28,203
805,7	26,313
805,9	24,481
806,1	23,922
806,3	23,639
806,5	23,002
806,8	21,55
807	22,101
807,2	22,312
807,4	22,357
807,6	20,275
807,9	19,31
808,1	19,366
808,3	19,397
808,5	22,976
808,8	24,062
809	21,856
809,2	22,583
809,4	21,931
809,6	21,833
809,9	20,309
810,1	18,205
810,3	18,861
810,5	17,779
810,7	15,501
811	13,389
811,2	12,408
811,4	12,246
811,6	10,59
811,8	11,439
812,1	12,672
812,3	13,204
812,5	12,638
812,7	12,676
812,9	12,453
813,2	13,132
813,4	12,291
813,6	13,713
813,8	13,626
814	12,352
814,3	11,918
814,5	14,969
814,7	14,324
814,9	11,974
815,2	10,7
815,4	8,388
815,6	7,203
815,8	6,917
816	5,178
816,3	5,672
816,5	4,824
816,7	5,567
816,9	6,253
817,1	6,321
817,4	4,952
817,6	5,718
817,8	6,359
818	6,283
818,2	5,985
818,5	5,94
818,7	4,873
818,9	2,802
819,1	3,76
819,3	4,612
819,6	6,517
819,8	9,029
820	7,471
820,2	7,154
820,4	7,369
820,7	7,55
820,9	9,421
821,1	9,734
821,3	8,086
821,5	9,27
821,8	10,843
822	9,957
822,2	11,096
822,4	10,519
822,6	10,805
822,9	10,824
823,1	9,519
823,3	10,394
823,5	9,772
823,7	11,145
823,9	9,674
824,2	9,776
824,4	8,923
824,6	9,579
824,8	8,588
825	8,395
825,3	7,992
825,5	9,089
825,7	9,813
825,9	8,048
826,1	6,951
826,4	5,797
826,6	2,682
826,8	2,093
827	2,546
827,2	2,81
827,5	3,613
827,7	3,458
827,9	3,575
828,1	3,583
828,3	3,764
828,6	4,247
828,8	5,77
829	3,688
829,2	3,538
829,4	5,016
829,6	5,355
829,9	5,857
830,1	5,544
830,3	5,597
830,5	3,911
830,7	4,812
831	5,076
831,2	5,401
831,4	3,96
831,6	4,258
831,8	4,567
832,1	4,296
832,3	4,458
832,5	5,601
832,7	5,19
832,9	5,668
833,1	6,427
833,4	7,501
833,6	8,708
833,8	10,783
834	10,76
834,2	11,552
834,5	10,074
834,7	7,701
834,9	8,06
835,1	7,471
835,3	7,185
835,5	6,061
835,8	7,026
836	8,116
836,2	6,86
836,4	7,415
836,6	6,668
836,9	6,163
837,1	6,547
837,3	7,283
837,5	6,6
837,7	5,755
837,9	5,265
838,2	7,309
838,4	7,049
838,6	8,735
838,8	10,006
839	9,078
839,3	9,251
839,5	11,111
839,7	10,632
839,9	9,138
840,1	8,358
840,3	9,681
840,6	7,509
840,8	8,199
841	6,89
841,2	7,649
841,4	9,168
841,7	9,549
841,9	8,919
842,1	8,961
842,3	10,081
842,5	9,945
842,7	10,364
843	10,745
843,2	8,622
843,4	11,318
843,6	11,692
843,8	12,027
844	11,752
844,3	11,216
844,5	11,439
844,7	11,386
844,9	10,79
845,1	11,167
845,4	9,553
845,6	9,44
845,8	10,843
846	9,398
846,2	7,928
846,4	9,368
846,7	9,662
846,9	10,258
847,1	9,006
847,3	10,013
847,5	9,183
847,7	8,218
848	7,166
848,2	7,098
848,4	6,147
848,6	6,14
848,8	5,687
849	4,726
849,3	4,944
849,5	4,895
849,7	3,9
849,9	3,24
850,1	0,358
850,3	2,304
850,6	2,531
850,8	1,667
851	1,094
851,2	1,071
851,4	1,731
851,6	0,177
851,9	-0,004
852,1	1,524
852,3	-0,867
852,5	-1,252
852,7	-0,845
852,9	0,505
853,2	0,392
853,4	0,185
853,6	-0,864
853,8	-1,539
854	-3,364
854,2	-2,191
854,5	-1,856
854,7	-1,558
854,9	-1,403
855,1	-0,566
855,3	0,041
855,5	1,041
855,8	0,898
856	-1,599
856,2	-3,123
856,4	-1,169
856,6	0,309
856,8	0,196
857,1	1,131
857,3	-0,355
857,5	-0,057
857,7	2,154
857,9	2,764
858,1	3,824
858,4	4,518
858,6	4,605
858,8	2,844
859	5,042
859,2	3,308
859,4	4,088
859,7	2,708
859,9	1,656
860,1	1,475
860,3	1,927
860,5	1,912
860,7	2,248
860,9	0,305
861,2	1,316
861,4	2,018
861,6	2,946
861,8	3,474
862	3,564
862,2	3,364
862,5	3,485
862,7	4,714
862,9	4,895
863,1	3,726
863,3	4,348
863,5	5,299
863,8	2,746
864	4,597
864,2	5,684
864,4	4,767
864,6	3,79
864,8	3,16
865	3,681
865,3	4,53
865,5	4,111
865,7	4,944
865,9	6,227
866,1	4,873
866,3	5,073
866,6	6,227
866,8	5,736
867	4,888
867,2	4,556
867,4	5,137
867,6	5,548
867,8	4,431
868,1	3,922
868,3	3,274
868,5	2,304
868,7	0,879
868,9	0,041
869,1	0,064
869,3	0,833
869,6	0,249
869,8	0,426
870	-0,939
870,2	-0,962
870,4	-1,267
870,6	-2,252
870,9	-4,409
871,1	-5,54
871,3	-5,442
871,5	-6,645
871,7	-5,212
871,9	-6,223
872,1	-6,668
872,4	-9,195
872,6	-9,874
872,8	-8,565
873	-9,051
873,2	-9,5
873,4	-7,49
873,6	-6,841
873,9	-6,989
874,1	-7,192
874,3	-8,916
874,5	-9,975
874,7	-10,639
874,9	-10,756
875,1	-11,631
875,4	-11,605
875,6	-12,352
875,8	-11,676
876	-9,885
876,2	-9,217
876,4	-10,153
876,6	-10,009
876,9	-9,425
877,1	-8,882
877,3	-8,505
877,5	-9,014
877,7	-7,418
877,9	-6,132
878,1	-6,585
878,4	-8,263
878,6	-8,316
878,8	-7,754
879	-7,524
879,2	-5,774
879,4	-7,464
879,6	-5,54
879,9	-6,419
880,1	-6,362
880,3	-6,555
880,5	-5,005
880,7	-3,504
880,9	-2,361
881,1	-1,045
881,3	-0,822
881,6	-2,15
881,8	-3,16
882	-2,904
882,2	0,189
882,4	-0,29
882,6	-3,047
882,8	-3,707
883,1	-3,745
883,3	-3,696
883,5	-5,08
883,7	-3,896
883,9	-5,148
884,1	-4,533
884,3	-6,362
884,6	-7,701
884,8	-5,05
885	-5,242
885,2	-5,257
885,4	-5,088
885,6	-2,915
885,8	-3,881
886	-2,24
886,3	-3,941
886,5	-3,832
886,7	-4,582
886,9	-3,813
887,1	-5,378
887,3	-6,355
887,5	-5,212
887,8	-4,741
888	-4,658
888,2	-3,36
888,4	-2,689
888,6	-2,104
888,8	-3,704
889	-3,119
889,2	-2,844
889,5	-3,651
889,7	-2,949
889,9	-1,03
890,1	-1,037
890,3	-2,632
890,5	-1,607
890,7	-0,513
890,9	-0,298
891,2	-0,332
891,4	-2,316
891,6	-2,455
891,8	-1,618
892	-1,799
892,2	-3,319
892,4	-5,687
892,6	-6,476
892,9	-6,57
893,1	-6,619
893,3	-5,702
893,5	-6,691
893,7	-5,774
893,9	-5,842
894,1	-6,445
894,3	-7,038
894,6	-7,407
894,8	-7,452
895	-5,955
895,2	-5,785
895,4	-5,71
895,6	-7,935
895,8	-7,569
896	-5,827
896,3	-6,551
896,5	-8,493
896,7	-7,151
896,9	-6,593
897,1	-6,962
897,3	-7,765
897,5	-6,838
897,7	-6,555
898	-4,639
898,2	-5,593
898,4	-6,732
898,6	-6,932
898,8	-6,872
899	-4,707
899,2	-3,228
899,4	-2,414
899,6	-1,954
899,9	-3,345
900,1	-0,66
900,3	0,121
900,5	0,596
900,7	-0,309
900,9	-2,203
901,1	-1,282
901,3	-2,783
901,6	-3,93
901,8	-3,911
902	-5,235
902,2	-4,496
902,4	-4,922
902,6	-5,883
902,8	-6,566
903	-7,558
903,2	-8,565
903,5	-9,398
903,7	-10,13
903,9	-9,764
904,1	-10,27
904,3	-9,704
904,5	-10,915
904,7	-10,1
904,9	-9,025
905,1	-8,591
905,4	-7,55
905,6	-8,075
905,8	-9,485
906	-9,742
906,2	-10,126
906,4	-10,749
906,6	-13,144
906,8	-12,978
907	-13,242
907,3	-13
907,5	-13,177
907,7	-14,52
907,9	-12,227
908,1	-11,903
908,3	-13,468
908,5	-12,442
908,7	-11,857
908,9	-12,453
909,2	-12,951
909,4	-11,073
909,6	-9,561
909,8	-11,356
910	-11,959
910,2	-10,307
910,4	-11,367
910,6	-10,613
910,8	-12,781
911,1	-11,005
911,3	-9,161
911,5	-9,877
911,7	-9,972
911,9	-9,923
912,1	-9,972
912,3	-10,786
912,5	-9,044
912,7	-8,95
912,9	-7,641
913,2	-6,947
913,4	-8,716
913,6	-7,822
913,8	-7,128
914	-4,522
914,2	-4,035
914,4	-4,941
914,6	-5,484
914,8	-4,243
915,1	-3,025
915,3	-2,987
915,5	-1,814
915,7	-1,037
915,9	-1,516
916,1	-2,033
916,3	-1,06
916,5	-0,109
916,7	-0,113
916,9	1,746
917,2	0,445
917,4	2,904
917,6	0,69
917,8	-0,185
918	-2,221
918,2	-2,018
918,4	-3,903
918,6	-3,353
918,8	-3,225
919	-5,239
919,2	-3,854
919,5	-3,289
919,7	-5,653
919,9	-4,975
920,1	-6,159
920,3	-6,894
920,5	-7,147
920,7	-6,574
920,9	-7,894
921,1	-6,841
921,3	-8,094
921,6	-9,953
921,8	-10,206
922	-10,949
922,2	-13,377
922,4	-12,966
922,6	-13,472
922,8	-12,02
923	-12,299
923,2	-13,136
923,4	-14,916
923,6	-14,358
923,9	-14,339
924,1	-14,369
924,3	-15,821
924,5	-14,037
924,7	-14,686
924,9	-13,615
925,1	-13,732
925,3	-13,008
925,5	-12,612
925,7	-14,611
925,9	-15,501
926,2	-13,408
926,4	-13,573
926,6	-12,732
926,8	-13,136
927	-14,117
927,2	-13,396
927,4	-13,294
927,6	-15,078
927,8	-12,77
928	-12,517
928,2	-12,253
928,5	-11,91
928,7	-10,289
928,9	-9,855
929,1	-8,512
929,3	-8,195
929,5	-7,196
929,7	-8,312
929,9	-7,4
930,1	-8,376
930,3	-9,489
930,5	-8,606
930,8	-6,095
931	-5,936
931,2	-6
931,4	-6,347
931,6	-5,88
931,8	-5,314
932	-5,668
932,2	-6,683
932,4	-8,429
932,6	-8,852
932,8	-10,326
933	-12,548
933,3	-12,363
933,5	-11,869
933,7	-12,529
933,9	-11,971
934,1	-11,005
934,3	-11,209
934,5	-10,522
934,7	-11,088
934,9	-11,522
935,1	-11,077
935,3	-12,023
935,5	-13,279
935,7	-14,271
936	-15,108
936,2	-14,437
936,4	-14,569
936,6	-13,083
936,8	-12,815
937	-13,498
937,2	-15,429
937,4	-15,188
937,6	-15,248
937,8	-15,176
938	-18,111
938,2	-18,993
938,4	-17,699
938,7	-15,931
938,9	-15,648
939,1	-15,489
939,3	-13,317
939,5	-11,586
939,7	-11,593
939,9	-12,11
940,1	-12,253
940,3	-12,174
940,5	-11,884
940,7	-12,484
940,9	-12,597
941,1	-12,484
941,4	-12,691
941,6	-11,861
941,8	-12,155
942	-11,518
942,2	-11,786
942,4	-11,601
942,6	-9,896
942,8	-9,602
943	-9,896
943,2	-9,553
943,4	-9,542
943,6	-9,236
943,8	-9,7
944	-10,16
944,3	-9,542
944,5	-8,821
944,7	-6,751
944,9	-7,087
945,1	-6,868
945,3	-5,303
945,5	-4,605
945,7	-5,091
945,9	-5,778
946,1	-5,016
946,3	-6,004
946,5	-6,743
946,7	-6,777
946,9	-6,027
947,1	-6,725
947,4	-7,286
947,6	-8,716
947,8	-8,478
948	-8,957
948,2	-8,116
948,4	-9,097
948,6	-9,033
948,8	-8,916
949	-10,153
949,2	-9,621
949,4	-10,213
949,6	-11,024
949,8	-10,941
950	-11,982
950,2	-10,032
950,5	-9,523
950,7	-10,839
950,9	-9,508
951,1	-12,397
951,3	-11,262
951,5	-11,756
951,7	-14,037
951,9	-14,098
952,1	-14,332
952,3	-13,509
952,5	-14,256
952,7	-12,853
952,9	-11,612
953,1	-12,14
953,3	-12,638
953,5	-12,404
953,8	-11,763
954	-9,432
954,2	-10,651
954,4	-10,737
954,6	-11,91
954,8	-11,699
955	-10,217
955,2	-9,557
955,4	-10,304
955,6	-11,62
955,8	-10,074
956	-9,063
956,2	-8,863
956,4	-7,524
956,6	-9,119
956,8	-9,018
957	-9,018
957,2	-8,49
957,5	-8,207
957,7	-10,13
957,9	-10,93
958,1	-9,893
958,3	-11,65
958,5	-12,306
958,7	-12,996
958,9	-12,367
959,1	-12,649
959,3	-12,932
959,5	-13,355
959,7	-13,423
959,9	-13,506
960,1	-13,807
960,3	-14,573
960,5	-11,85
960,7	-11,639
960,9	-9,953
961,1	-10,319
961,4	-11,729
961,6	-13,498
961,8	-14,316
962	-14,973
962,2	-14,573
962,4	-17,613
962,6	-16,881
962,8	-18,457
963	-19,144
963,2	-19,732
963,4	-19,434
963,6	-21,497
963,8	-22,101
964	-23,319
964,2	-23,489
964,4	-21,991
964,6	-21,23
964,8	-20,803
965	-21,022
965,2	-22,259
965,5	-22,169
965,7	-21,984
965,9	-21,38
966,1	-23,047
966,3	-21,976
966,5	-19,947
966,7	-22,063
966,9	-22,391
967,1	-23,402
967,3	-24,081
967,5	-23,01
967,7	-23,025
967,9	-21,98
968,1	-20,407
968,3	-17,775
968,5	-18,695
968,7	-15,972
968,9	-15,78
969,1	-14,554
969,3	-12,683
969,5	-12,499
969,7	-11,857
969,9	-10,179
970,2	-9,3
970,4	-7,792
970,6	-7,43
970,8	-8,105
971	-6,015
971,2	-5,499
971,4	-5,359
971,6	-4,628
971,8	-4,533
972	-5,412
972,2	-3,609
972,4	-2,753
972,6	-4,929
972,8	-6,317
973	-4,352
973,2	-4,907
973,4	-5,076
973,6	-6
973,8	-6,906
974	-7,373
974,2	-7,354
974,4	-9,101
974,6	-10,737
974,8	-9,975
975	-9,874
975,2	-10,734
975,5	-11,873
975,7	-11,507
975,9	-10,768
976,1	-11,107
976,3	-12,698
976,5	-11,107
976,7	-11,808
976,9	-11,68
977,1	-12,321
977,3	-14,086
977,5	-15,701
977,7	-15,746
977,9	-14,301
978,1	-13,992
978,3	-13,513
978,5	-14,475
978,7	-14,03
978,9	-13,098
979,1	-13,166
979,3	-12,333
979,5	-12,906
979,7	-13,26
979,9	-12,838
980,1	-13,291
980,3	-12,891
980,5	-13,132
980,7	-11,846
980,9	-10,232
981,1	-11,235
981,3	-11,22
981,5	-11,032
981,7	-10,39
981,9	-11,431
982,2	-10,058
982,4	-10,356
982,6	-7,03
982,8	-9,342
983	-10,149
983,2	-9,199
983,4	-9,342
983,6	-8,863
983,8	-6,936
984	-6,63
984,2	-6,344
984,4	-6,823
984,6	-7,803
984,8	-8,376
985	-6,913
985,2	-5,574
985,4	-6,344
985,6	-8,282
985,8	-7,2
986	-4,695
986,2	-3,315
986,4	-3,081
986,6	-0,939
986,8	-1,84
987	-0,49
987,2	-0,939
987,4	-2,029
987,6	-2,142
987,8	-2,289
988	-2,602
988,2	-3,587
988,4	-5,325
988,6	-4,846
988,8	-7,728
989	-6,427
989,2	-6,51
989,4	-6,031
989,6	-6,132
989,8	-6,125
990	-5,333
990,2	-5,793
990,4	-7,286
990,6	-6,17
990,8	-4,341
991	-4,152
991,3	-5,152
991,5	-5,559
991,7	-6,302
991,9	-6,098
992,1	-6,973
992,3	-7,584
992,5	-8,437
992,7	-7,988
992,9	-9,255
993,1	-8,297
993,3	-9,365
993,5	-10,707
993,7	-9,331
993,9	-8,806
994,1	-8,821
994,3	-7,758
994,5	-7,015
994,7	-6,966
994,9	-6,634
995,1	-6,031
995,3	-6,419
995,5	-5,174
995,7	-6,958
995,9	-5,423
996,1	-5,789
996,3	-7,965
996,5	-7,626
996,7	-8,738
996,9	-9,885
997,1	-12,529
997,3	-14,264
997,5	-14,452
997,7	-14,528
997,9	-14,618
998,1	-11,899
998,3	-11,974
998,5	-12,88
998,7	-13,079
998,9	-11,805
999,1	-12,035
999,3	-11,891
999,5	-13,404
999,7	-14,445
999,9	-15,78
1000,1	-17,33
1000,3	-17,745
1000,5	-18,111
1000,7	-17,394
1000,9	-17,051
1001,1	-17,217
1001,3	-16,421
1001,5	-17,443
1001,7	-17,243
1001,9	-17,59
1002,1	-18,273
1002,3	-18,522
1002,5	-19,838
1002,7	-21,082
1002,9	-20,17
1003,1	-20,268
1003,3	-19,068
1003,5	-16,704
1003,7	-17,137
1003,9	-16,41
1004,1	-15,116
1004,3	-16,821
1004,5	-15,493
1004,7	-15,365
1004,9	-16,493
1005,1	-16,428
1005,3	-15,723
1005,5	-17,002
1005,7	-14,132
1005,9	-13,649
1006,1	-11,692
1006,3	-10,556
1006,5	-10,443
1006,7	-10,341
1006,9	-10,624
1007,1	-11,126
1007,3	-11,79
1007,5	-11,688
1007,7	-11,213
1007,9	-12,521
1008,1	-11,725
1008,3	-12,099
1008,5	-11,397
1008,7	-7,434
1008,9	-6,17
1009,1	-5,14
1009,3	-6,049
1009,5	-5,668
1009,7	-6,329
1009,9	-6,713
1010,1	-8,787
1010,3	-8,082
1010,5	-8,859
1010,7	-10,006
1010,9	-10,82
1011,1	-10,134
1011,3	-11,069
1011,5	-12,295
1011,7	-11,967
1011,9	-13,709
1012,1	-11,601
1012,3	-12,14
1012,5	-12,48
1012,7	-12,551
1012,9	-12,955
1013,1	-14,622
1013,3	-14,056
1013,5	-13,532
1013,7	-13,909
1013,9	-14,671
1014,1	-13,645
1014,3	-14,056
1014,5	-15,041
1014,7	-14,588
1014,9	-17,522
1015,1	-17,168
1015,3	-19,283
1015,5	-19,646
1015,7	-19,374
1015,9	-19,476
1016,1	-19,48
1016,3	-17,503
1016,5	-19,48
1016,7	-18,891
1016,9	-19,457
1017,1	-19,962
1017,3	-20,792
1017,5	-20,86
1017,7	-20,532
1017,9	-19,906
1018,1	-19,197
1018,3	-20,909
1018,5	-21,803
1018,7	-20,962
1018,9	-20,558
1019,1	-21,622
1019,2	-21,731
1019,4	-21,871
1019,6	-21,475
1019,8	-23,134
1020	-21,92
1020,2	-22,485
1020,4	-19,781
1020,6	-19,434
1020,8	-21,535
1021	-20,37
1021,2	-21,954
1021,4	-20,166
1021,6	-18,009
1021,8	-17,888
1022	-18,043
1022,2	-17,032
1022,4	-16,172
1022,6	-16,824
1022,8	-16,685
1023	-17,013
1023,2	-15,267
1023,4	-14,471
1023,6	-14,365
1023,8	-11,65
1024	-11,895
1024,2	-14,29
1024,4	-13,66
1024,6	-13,679
1024,8	-15,146
1025	-14,716
1025,2	-14,645
1025,4	-11,906
1025,6	-11,839
1025,8	-12,37
1026	-10,526
1026,2	-10,3
1026,4	-10,047
1026,6	-11,541
1026,8	-9,632
1027	-9,263
1027,2	-8,505
1027,4	-7,897
1027,6	-8,312
1027,8	-9,745
1028	-10,3
1028,1	-8,75
1028,3	-10,454
1028,5	-12,472
1028,7	-12,046
1028,9	-12,83
1029,1	-12,566
1029,3	-12,962
1029,5	-12,706
1029,7	-13,668
1029,9	-16,24
1030,1	-13,585
1030,3	-11,922
1030,5	-10,956
1030,7	-9,696
1030,9	-8,682
1031,1	-9,051
1031,3	-8,746
1031,5	-9,444
1031,7	-10,458
1031,9	-10,322
1032,1	-10,809
1032,3	-12,325
1032,5	-12,834
1032,7	-14,758
1032,9	-16,824
1033,1	-16,131
1033,3	-16,553
1033,5	-16,323
1033,7	-17,522
1033,9	-17,032
1034,1	-17,021
1034,3	-16,496
1034,4	-15,999
1034,6	-15,689
1034,8	-14,452
1035	-13,819
1035,2	-13,668
1035,4	-13,004
1035,6	-13,77
1035,8	-12,721
1036	-13,057
1036,2	-15,904
1036,4	-15,889
1036,6	-17,039
1036,8	-18,891
1037	-18,608
1037,2	-19,815
1037,4	-19,691
1037,6	-21,282
1037,8	-19,989
1038	-20,57
1038,2	-20,517
1038,4	-20,381
1038,6	-19,517
1038,8	-18,318
1039	-16,036
1039,2	-17,005
1039,4	-18,273
1039,5	-17,647
1039,7	-16,847
1039,9	-15,033
1040,1	-15,682
1040,3	-16,553
1040,5	-15,391
1040,7	-15,693
1040,9	-16,281
1041,1	-18,16
1041,3	-18,654
1041,5	-20,717
1041,7	-20,189
1041,9	-20,351
1042,1	-20,313
1042,3	-19,823
1042,5	-19,724
1042,7	-19,743
1042,9	-18,953
1043,1	-20,01
1043,3	-19,188
1043,5	-18,982
1043,7	-18,097
1043,8	-18,778
1044	-18,074
1044,2	-18,4
1044,4	-16,941
1044,6	-17,482
1044,8	-17,719
1045	-20,405
1045,2	-19,401
