Data from led6500K_USB4H112691__8__12-46-52-144.txt Node

Date: Tue Dec 17 12:46:52 CET 2024
User: Etudiants TP
Spectrometer: USB4H11269
Trigger mode: 4
Integration Time (sec): 1,000000E0
Scans to average: 1
Electric dark correction enabled: true
Nonlinearity correction enabled: false
Boxcar width: 0
XAxis mode: Wavelengths
Number of Pixels in Spectrum: 3648
>>>>>Begin Spectral Data<<<<<
286,377	-1662,61
286,631	-1662,61
286,884	-1662,61
287,138	-1621,65
287,391	-1670,8
287,644	-859,81
287,896	-663,2
288,149	797
288,401	409,94
288,653	-560,8
288,905	-485,03
289,157	948,55
289,409	356,69
289,661	-450,21
289,912	-786,08
290,163	479,57
290,414	813,38
290,665	-700,06
290,916	-556,71
291,166	674,12
291,417	1155,4
291,667	-523,94
291,917	-194,22
292,167	559,44
292,417	612,68
292,666	-745,12
292,916	-562,85
293,165	579,92
293,414	749,9
293,663	-788,13
293,912	-773,79
294,16	803,15
294,408	751,95
294,657	-741,02
294,905	-370,34
295,153	577,87
295,4	663,88
295,648	-732,83
295,895	-759,46
296,143	121,17
296,39	946,5
296,637	-607,91
296,884	-716,45
297,13	799,05
297,377	868,68
297,623	-519,84
297,869	-274,09
298,115	842,06
298,361	747,85
298,606	-669,34
298,852	-626,34
299,097	616,78
299,342	979,27
299,587	-413,35
299,832	-558,75
300,077	817,48
300,322	762,19
300,566	-738,98
300,81	-437,92
301,054	704,84
301,298	897,35
301,542	-151,21
301,785	-368,29
302,029	1024,33
302,272	803,15
302,515	-693,92
302,758	-503,46
303,001	774,47
303,244	784,71
303,486	-521,89
303,729	-863,9
303,971	1096
304,213	842,06
304,455	-865,95
304,696	-257,7
304,938	401,74
305,179	852,3
305,421	-429,73
305,662	-466,6
305,903	420,17
306,143	416,08
306,384	-401,06
306,625	-470,69
306,865	538,96
307,105	407,89
307,345	-425,64
307,585	-499,36
307,825	162,13
308,064	792,91
308,304	-663,2
308,543	-734,88
308,782	573,77
309,021	1005,89
309,26	-317,09
309,499	-564,9
309,737	1007,94
309,976	725,32
310,214	-640,67
310,452	-599,71
310,69	1261,89
310,928	418,13
311,165	-622,24
311,403	-632,48
311,64	983,37
311,878	682,31
312,115	-458,4
312,351	-450,21
312,588	504,14
312,825	1005,89
313,061	-712,35
313,298	4,44
313,534	512,33
313,77	860,49
314,006	-595,62
314,241	-542,37
314,477	799,05
314,713	1384,77
314,948	-540,32
315,183	289,1
315,418	942,41
315,653	639,31
315,888	-720,54
316,122	-442,02
316,357	442,7
316,591	889,16
316,825	-433,83
317,059	-566,95
317,293	1026,37
317,527	518,48
317,76	-646,82
317,994	-407,2
318,227	723,27
318,46	1255,75
318,693	-710,3
318,926	-450,21
319,159	260,43
319,391	643,4
319,624	-765,6
319,856	-519,84
320,088	926,02
320,321	688,46
320,552	-257,7
320,784	-589,47
321,016	860,49
321,247	115,03
321,479	-317,09
321,71	-413,35
321,941	-34,47
322,172	1196,36
322,403	-695,97
322,633	-306,85
322,864	901,45
323,094	264,53
323,325	-38,57
323,555	-646,82
323,785	293,2
324,014	354,64
324,244	-460,45
324,474	-265,89
324,703	979,27
324,933	926,02
325,162	-437,92
325,391	-761,5
325,62	69,97
325,848	991,56
326,077	-532,13
326,306	-310,95
326,534	741,71
326,762	1016,13
326,99	-556,71
327,218	-188,07
327,446	995,65
327,674	182,61
327,901	-550,56
328,129	-657,06
328,356	805,19
328,583	225,62
328,81	-646,82
329,037	-456,36
329,264	541,01
329,491	985,41
329,717	-444,07
329,944	-573,09
330,17	436,56
330,396	225,62
330,622	-605,86
330,848	-339,62
331,074	454,99
331,299	1538,37
331,525	-568,99
331,75	-599,71
331,975	979,27
332,201	237,91
332,426	-808,61
332,65	-669,34
332,875	2,39
333,1	446,8
333,324	-659,1
333,549	-581,28
333,773	479,57
333,997	586,06
334,221	-568,99
334,445	-562,85
334,668	698,7
334,892	1149,25
335,116	-269,99
335,339	-540,32
335,562	4,44
335,785	444,75
336,008	-179,88
336,231	-659,1
336,454	-118,44
336,676	1016,13
336,899	-394,92
337,121	-253,61
337,343	160,08
337,566	602,44
337,788	-552,61
338,009	-648,86
338,231	123,22
338,453	454,99
338,674	3408,16
338,896	-409,25
339,117	106,84
339,338	1182,02
339,559	-628,39
339,78	-548,51
340,001	137,56
340,222	962,89
340,442	-581,28
340,663	-255,65
340,883	835,91
341,103	424,27
341,323	-485,03
341,543	-423,59
341,763	864,58
341,983	346,45
342,202	-589,47
342,422	-702,11
342,641	1163,59
342,861	428,37
343,08	-194,22
343,299	-630,43
343,518	737,61
343,736	692,55
343,955	-544,42
344,174	-640,67
344,392	897,35
344,61	213,33
344,829	-671,39
345,047	-511,65
345,265	657,74
345,483	1040,71
345,7	-530,08
345,918	-83,63
346,136	147,8
346,353	999,75
346,57	-720,54
346,788	-638,62
347,005	405,84
347,222	100,69
347,438	-95,91
347,655	-485,03
347,872	149,84
348,088	1139,01
348,305	-360,1
348,521	-591,52
348,737	246,1
348,953	1042,76
349,169	-69,29
349,385	-429,73
349,601	532,81
349,817	-7,85
350,032	-159,4
350,248	-235,18
350,463	1188,16
350,678	-188,07
350,893	-614,05
351,108	-736,93
351,323	311,63
351,538	911,69
351,753	-650,91
351,967	-491,17
352,182	860,49
352,396	272,72
352,61	-667,3
352,824	-446,12
353,038	788,81
353,252	960,84
353,466	-405,16
353,68	-523,94
353,894	487,76
354,107	182,61
354,32	-370,34
354,534	-556,71
354,747	794,95
354,96	-5,8
355,173	-319,14
355,386	-743,07
355,599	688,46
355,811	356,69
356,024	-636,58
356,236	-306,85
356,449	201,04
356,661	328,02
356,873	-716,45
357,085	-820,89
357,297	774,47
357,509	770,38
357,721	-482,98
357,933	-548,51
358,144	315,73
358,356	309,58
358,567	-257,7
358,778	-679,58
358,989	1034,57
359,2	321,87
359,411	-507,55
359,622	-353,96
359,833	575,82
360,044	411,98
360,254	-536,23
360,465	-605,86
360,675	653,64
360,885	487,76
361,096	-695,97
361,306	-411,3
361,516	393,55
361,726	524,62
361,935	-851,61
362,145	-466,6
362,355	579,92
362,564	627,02
362,774	-741,02
362,983	-777,89
363,192	1081,67
363,401	289,1
363,61	-573,09
363,819	-278,18
364,028	442,7
364,237	993,61
364,445	-429,73
364,654	-300,71
364,862	508,24
365,071	254,29
365,279	-415,4
365,487	-626,34
365,695	710,99
365,903	495,95
366,111	-616,1
366,319	-530,08
366,527	672,08
366,734	387,41
366,942	-390,82
367,149	-655,01
367,357	-482,98
367,564	1085,76
367,771	-368,29
367,978	-644,77
368,185	196,95
368,392	467,28
368,599	-376,48
368,806	-540,32
369,013	12,63
369,219	598,35
369,426	-693,92
369,632	-204,46
369,838	1222,98
370,044	680,27
370,251	-478,88
370,457	-409,25
370,663	983,37
370,868	438,61
371,074	-562,85
371,28	-640,67
371,485	-65,19
371,691	780,62
371,896	-523,94
372,102	-700,06
372,307	1268,03
372,512	899,4
372,717	-634,53
372,922	-192,17
373,127	96,6
373,332	411,98
373,537	-446,12
373,741	-415,4
373,946	676,17
374,151	299,34
374,355	-720,54
374,559	-399,01
374,764	233,81
374,968	-253,61
375,172	-476,84
375,376	-196,26
375,58	663,88
375,784	115,03
375,987	-710,3
376,191	-605,86
376,395	272,72
376,598	299,34
376,802	-585,38
377,005	-245,41
377,208	356,69
377,412	219,47
377,615	-835,23
377,818	-591,52
378,021	344,4
378,224	26,96
378,426	-538,27
378,629	-730,78
378,832	852,3
379,034	635,21
379,237	-720,54
379,439	-749,22
379,642	840,01
379,844	471,37
380,046	-835,23
380,248	-636,58
380,45	-65,19
380,652	-157,35
380,854	-450,21
381,056	-505,51
381,258	436,56
381,459	495,95
381,661	-808,61
381,862	-278,18
382,064	-24,23
382,265	295,25
382,467	-716,45
382,668	-446,12
382,869	944,45
383,07	475,47
383,271	-343,72
383,472	-618,15
383,673	741,71
383,874	459,09
384,074	-485,03
384,275	-618,15
384,476	586,06
384,676	1218,88
384,876	-646,82
385,077	-532,13
385,277	786,76
385,477	1053
385,677	-700,06
385,878	-429,73
386,078	340,3
386,278	411,98
386,477	-206,5
386,677	-143,02
386,877	545,1
387,077	774,47
387,276	-331,43
387,476	-464,55
387,675	471,37
387,875	1057,09
388,074	-683,68
388,273	-417,44
388,472	887,11
388,671	-77,48
388,87	-646,82
389,069	-77,48
389,268	-81,58
389,467	82,26
389,666	-655,01
389,865	-143,02
390,063	541,01
390,262	766,28
390,461	-530,08
390,659	-667,3
390,857	674,12
391,056	665,93
391,254	-616,1
391,452	-433,83
391,65	715,08
391,849	577,87
392,047	-358,05
392,245	-196,26
392,442	305,49
392,64	631,12
392,838	-222,89
393,036	-431,78
393,233	371,02
393,431	317,78
393,629	-781,98
393,826	-442,02
394,023	262,48
394,221	-59,05
394,418	-327,33
394,615	-93,87
394,812	-81,58
395,01	745,8
395,207	-534,18
395,404	-661,15
395,601	1106,24
395,797	606,54
395,994	-745,12
396,191	-401,06
396,388	325,97
396,584	805,19
396,781	-292,52
396,977	31,06
397,174	680,27
397,37	110,93
397,567	-302,76
397,763	-620,19
397,959	434,51
398,155	340,3
398,352	-525,99
398,548	-147,11
398,744	571,72
398,94	461,13
399,136	-695,97
399,331	-220,84
399,527	471,37
399,723	561,48
399,919	-267,94
400,114	-491,17
400,31	215,38
400,505	596,3
400,701	-380,58
400,896	-431,78
401,092	328,02
401,287	424,27
401,482	-687,78
401,678	-384,68
401,873	729,42
402,068	622,92
402,263	-343,72
402,458	-487,08
402,653	172,37
402,848	567,63
403,043	-456,36
403,237	-564,9
403,432	188,75
403,627	-69,29
403,822	-695,97
404,016	-482,98
404,211	299,34
404,405	631,12
404,6	-245,41
404,794	-112,3
404,989	657,74
405,183	235,86
405,377	-269,99
405,571	16,73
405,766	547,15
405,96	428,37
406,154	-446,12
406,348	-317,09
406,542	688,46
406,736	745,8
406,93	-575,14
407,124	-233,13
407,318	434,51
407,511	477,52
407,705	-251,56
407,899	-499,36
408,092	741,71
408,286	430,41
408,48	-605,86
408,673	-458,4
408,867	231,76
409,06	573,77
409,253	-245,41
409,447	-292,52
409,64	837,96
409,833	594,25
410,026	-269,99
410,22	-257,7
410,413	850,25
410,606	733,51
410,799	-517,79
410,992	-415,4
411,185	590,16
411,378	1177,92
411,571	-335,53
411,764	-239,27
411,956	753,99
412,149	641,36
412,342	-77,48
412,534	-229,03
412,727	772,43
412,92	596,3
413,112	-274,09
413,305	-100,01
413,497	999,75
413,69	786,76
413,882	-220,84
414,075	-20,14
414,267	715,08
414,459	518,48
414,652	-325,29
414,844	-263,85
415,036	743,75
415,228	1007,94
415,42	10,58
415,612	-267,94
415,804	1114,44
415,997	696,65
416,188	-65,19
416,38	-57
416,572	360,78
416,764	893,26
416,956	-214,7
417,148	-294,57
417,34	641,36
417,531	328,02
417,723	-245,41
417,915	-175,78
418,107	565,58
418,298	852,3
418,49	18,77
418,681	170,32
418,873	1173,83
419,064	747,85
419,256	29,01
419,447	-93,87
419,639	926,02
419,83	1253,7
420,021	18,77
420,213	-112,3
420,404	753,99
420,595	995,65
420,786	102,74
420,978	69,97
421,169	1196,36
421,36	827,72
421,551	-50,86
421,742	-69,29
421,933	1343,81
422,124	1175,88
422,315	192,85
422,506	106,84
422,697	1075,52
422,888	821,58
423,079	422,22
423,27	63,83
423,461	971,08
423,652	819,53
423,842	80,21
424,033	151,89
424,224	1249,6
424,415	1628,48
424,605	352,59
424,796	278,87
424,987	1290,56
425,177	1239,36
425,368	155,99
425,558	98,64
425,749	1102,15
425,939	1018,18
426,13	731,47
426,32	577,87
426,511	1085,76
426,701	1036,61
426,892	452,94
427,082	344,4
427,272	1079,62
427,463	1343,81
427,653	567,63
427,843	622,92
428,034	1831,23
428,224	1417,54
428,414	309,58
428,604	659,79
428,795	1603,9
428,985	1575,23
429,175	987,46
429,365	876,87
429,555	1624,38
429,745	1556,8
429,935	792,91
430,126	960,84
430,316	1843,51
430,506	2058,55
430,696	995,65
430,886	1182,02
431,076	1859,9
431,266	1689,92
431,456	1345,86
431,645	1055,05
431,835	1782,07
432,025	2097,46
432,215	991,56
432,405	1255,75
432,595	2036,02
432,785	1958,2
432,975	1198,4
433,164	954,69
433,354	1968,44
433,544	2249,01
433,734	1210,69
433,923	1651
434,113	2234,68
434,303	2261,3
434,493	1694,01
434,682	1571,13
434,872	2761
435,062	2142,52
435,251	1737,02
435,441	1552,7
435,631	3012,9
435,82	2607,41
436,01	1542,46
436,2	1900,86
436,389	2627,89
436,579	3475,74
436,768	2433,33
436,958	2367,79
437,147	2971,94
437,337	3354,91
437,527	2533,68
437,716	2308,4
437,906	3596,57
438,095	3273
438,285	2650,41
438,474	2564,4
438,664	3862,81
438,853	3678,49
439,043	2959,66
439,232	2578,73
439,422	3887,39
439,611	3963,16
439,8	2916,65
439,99	3326,24
440,179	4102,42
440,369	4466,96
440,558	3139,88
440,748	3410,21
440,937	4016,41
441,126	4057,37
441,316	3756,32
441,505	3567,9
441,695	4851,98
441,884	5452,03
442,073	3942,68
442,263	3860,76
442,452	4845,84
442,642	5196,04
442,831	4247,83
443,02	4788,49
443,21	5677,31
443,399	6201,59
443,588	4651,28
443,778	4829,45
443,967	6291,7
444,156	5894,4
444,346	4907,27
444,535	5007,62
444,725	6633,71
444,914	5886,2
445,103	5417,22
445,293	5419,27
445,482	7004,39
445,671	6822,13
445,861	5847,29
446,05	5984,51
446,239	7114,98
446,429	6867,18
446,618	6025,47
446,807	6531,31
446,997	7530,72
447,186	7500
447,376	6824,17
447,565	6877,42
447,754	7938,27
447,944	8122,59
448,133	6807,79
448,322	6775,02
448,512	7944,41
448,701	8323,29
448,891	7203,05
449,08	7211,24
449,269	7532,77
449,459	7823,58
449,648	7164,14
449,838	7266,53
450,027	8108,25
450,217	8153,3
450,406	7233,77
450,595	7629,02
450,785	8579,28
450,974	8593,62
451,164	7528,67
451,353	7694,56
451,543	8636,63
451,732	8818,89
451,922	7495,91
452,111	7473,38
452,301	8216,79
452,49	8020,19
452,68	7602,4
452,869	7882,97
453,059	8341,72
453,249	8777,94
453,438	7250,15
453,628	7758,05
453,817	8480,98
454,007	8505,56
454,197	7074,03
454,386	7543,01
454,576	9019,6
454,765	8757,46
454,955	7553,25
455,145	7512,29
455,334	8376,53
455,524	7889,12
455,714	7837,92
455,904	7104,74
456,093	8806,61
456,283	8427,73
456,473	7332,07
456,663	7278,82
456,852	8136,92
457,042	8474,84
457,232	7317,73
457,422	7864,54
457,612	8204,5
457,802	8638,67
457,991	6760,69
458,181	7114,98
458,371	8409,3
458,561	8222,94
458,751	7233,77
458,941	7229,67
459,131	8026,33
459,321	8130,78
459,511	7432,42
459,701	7342,31
459,891	7964,89
460,081	7684,32
460,271	7102,7
460,461	6902
460,651	8904,91
460,841	8718,54
461,032	7190,76
461,222	7422,18
461,412	7999,71
461,602	9070,79
461,792	7094,51
461,983	6975,72
462,173	8448,21
462,363	8941,77
462,554	7258,34
462,744	7254,25
462,934	8526,04
463,125	8259,8
463,315	7299,3
463,505	7438,56
463,696	8444,12
463,886	7917,79
464,077	7135,46
464,267	7221,48
464,458	8579,28
464,648	8098,01
464,839	7536,87
465,03	7616,74
465,22	8132,83
465,411	8523,99
465,601	7422,18
465,792	7340,26
465,983	8294,61
466,174	8470,74
466,364	7237,86
466,555	7477,48
466,746	8597,71
466,937	8169,69
467,128	7373,03
467,319	7426,28
467,51	8782,03
467,701	9384,13
467,891	7725,28
468,082	7577,83
468,274	8421,59
468,465	7876,83
468,656	7727,33
468,847	7440,61
469,038	8173,78
469,229	8597,71
469,42	7721,18
469,612	7569,63
469,803	9087,18
469,994	8978,64
470,185	7995,61
470,377	7352,55
470,568	8857,81
470,76	8958,16
470,951	7778,53
471,142	8093,91
471,334	9134,28
471,526	8990,92
471,717	8239,32
471,909	7848,16
472,1	9029,84
472,292	9117,9
472,484	7999,71
472,675	8184,02
472,867	8956,11
473,059	9468,1
473,251	8308,95
473,443	8306,9
473,635	9392,33
473,826	9515,2
474,018	8397,01
474,21	8566,99
474,402	9603,27
474,595	9980,09
474,787	8650,96
474,979	8945,87
475,171	9517,25
475,363	9130,19
475,555	8540,37
475,748	8677,58
475,94	10100,92
476,132	9691,33
476,325	8722,64
476,517	9744,58
476,71	10866,86
476,902	9924,8
477,095	9142,47
477,287	9494,72
477,48	10870,96
477,673	10657,97
477,865	9586,88
478,058	9715,91
478,251	10690,74
478,444	10956,97
478,636	10070,2
478,829	9857,21
479,022	11055,28
479,215	11210,92
479,408	10348,73
479,601	10961,07
479,794	10909,87
479,988	11020,46
480,181	10741,94
480,374	10522,8
480,567	11634,85
480,76	12267,67
480,954	10617,01
481,147	10580,15
481,341	11722,91
481,534	11727,01
481,728	11165,87
481,921	11546,79
482,115	12325,02
482,308	12898,45
482,502	11088,04
482,696	11440,29
482,89	13305,99
483,084	12841,11
483,277	11739,3
483,471	12046,49
483,665	13213,84
483,859	14135,42
484,053	11878,56
484,247	12093,6
484,442	13463,69
484,636	13463,69
484,83	12505,24
485,024	12601,49
485,219	13619,33
485,413	13447,3
485,608	12707,99
485,802	13355,15
485,997	14571,64
486,191	14301,31
486,386	13095,05
486,58	13525,13
486,775	14581,88
486,97	14807,16
487,165	13523,08
487,36	13774,98
487,555	14970,99
487,75	14674,04
487,945	14162,05
488,14	14084,22
488,335	15108,21
488,53	15085,68
488,725	14401,66
488,92	14604,41
489,116	16021,6
489,311	15503,46
489,507	14542,97
489,702	15360,11
489,898	16414,81
490,093	15939,68
490,289	15564,9
490,485	15263,85
490,68	16074,85
490,876	16998,48
491,072	15360,11
491,268	15540,33
491,464	17201,23
491,66	17066,06
491,856	16011,36
492,052	16535,64
492,248	17442,89
492,445	17350,73
492,641	16248,93
492,837	16371,8
493,034	18059,33
493,23	18268,22
493,427	17250,38
493,623	16965,71
493,82	17963,08
494,017	18855,99
494,214	17051,73
494,41	17260,62
494,607	18399,29
494,804	18219,07
495,001	17500,23
495,198	17832,01
495,395	18942
495,593	19128,37
495,79	17700,94
495,987	18090,05
496,184	18671,67
496,382	19451,95
496,579	18200,64
496,777	18434,11
496,974	20178,98
497,172	19695,66
497,37	18610,23
497,568	18403,39
497,766	20459,55
497,963	19703,85
498,161	18978,87
498,359	19386,41
498,558	20670,49
498,756	20719,64
498,954	19234,86
499,152	20299,81
499,351	20637,72
499,549	20842,52
499,747	19861,54
499,946	19812,39
500,145	20582,43
500,343	21252,11
500,542	20408,35
500,741	19879,97
500,94	21583,88
501,139	21702,67
501,338	20490,27
501,537	20789,27
501,736	22378,5
501,935	21684,23
502,134	20731,93
502,334	21145,62
502,533	22132,74
502,733	22290,43
502,932	21295,12
503,132	21434,38
503,331	22112,26
503,531	22624,25
503,731	21520,4
503,931	21532,68
504,131	22519,81
504,331	23480,3
504,531	21753,87
504,731	22099,97
504,931	23209,97
505,132	23039,99
505,332	22487,04
505,532	22159,36
505,733	23803,88
505,933	24276,96
506,134	22476,8
506,335	22497,28
506,536	23715,82
506,736	24373,22
506,937	23037,94
507,138	23005,17
507,34	24836,06
507,541	24362,98
507,742	23803,88
507,943	22988,79
508,145	24395,75
508,346	23814,12
508,548	23547,89
508,749	23447,54
508,951	24518,62
509,153	24637,41
509,354	23980,01
509,556	23807,98
509,758	25567,18
509,96	24793,05
510,163	24455,14
510,365	24633,31
510,567	25452,5
510,769	25515,98
510,972	24719,32
511,174	25307,09
511,377	25321,43
511,58	27041,72
511,782	24799,19
511,985	25266,13
512,188	26695,61
512,391	26589,12
512,594	25106,39
512,797	25784,27
513,001	26771,39
513,204	27336,63
513,407	25984,97
513,611	25964,49
513,814	27604,91
514,018	27631,54
514,222	26253,25
514,425	26435,52
514,629	27256,76
514,833	27533,23
515,037	26677,18
515,241	26771,39
515,445	27486,13
515,65	27393,97
515,854	26791,87
516,059	27148,22
516,263	28184,49
516,468	28372,9
516,672	26929,08
516,877	27420,59
517,082	27944,87
517,287	28264,36
517,492	27600,82
517,697	27783,09
517,902	28563,36
518,107	28616,61
518,313	28069,8
518,518	27918,25
518,724	29312,92
518,929	28927,9
519,135	28354,47
519,341	27791,28
519,547	29343,64
519,753	29554,58
519,959	28295,08
520,165	28563,36
520,371	29949,84
520,577	30631,81
520,784	28178,34
520,99	29022,11
521,197	29898,64
521,404	29880,21
521,61	28784,54
521,817	28903,32
522,024	30531,46
522,231	29765,52
522,438	28925,85
522,645	29626,26
522,853	30300,04
523,06	30992,25
523,268	29454,23
523,475	29620,11
523,683	30824,32
523,891	30783,36
524,098	30003,08
524,306	29908,88
524,514	30906,24
524,722	30943,1
524,931	30271,37
525,139	30373,77
525,347	30756,74
525,556	31508,34
525,764	30523,27
525,973	30476,16
526,182	31815,54
526,391	31432,57
526,6	30762,88
526,809	30621,57
527,018	31641,46
527,227	32046,96
527,436	30947,2
527,646	30840,7
527,855	32053,1
528,065	32208,75
528,275	31180,67
528,484	31293,3
528,694	32190,31
528,904	32210,79
529,114	31516,53
529,325	31356,79
529,535	31983,47
529,745	32718,69
529,956	31391,61
530,166	31348,6
530,377	33126,24
530,588	33449,81
530,799	32323,43
531,01	31700,85
531,221	33185,63
531,432	33357,66
531,643	32880,48
531,855	32434,02
532,066	33449,81
532,278	33716,05
532,489	32517,99
532,701	32028,52
532,913	33965,9
533,125	33851,22
533,337	32362,34
533,549	33021,79
533,762	33779,54
533,974	33648,47
534,186	32683,87
534,399	33322,84
534,612	34504,52
534,825	34105,16
535,037	33503,06
535,25	33486,68
535,464	34273,1
535,677	34821,95
535,89	33431,38
536,104	33609,56
536,317	34551,62
536,531	34928,45
536,744	34006,86
536,958	34117,45
537,172	35133,25
537,386	34750,28
537,6	34289,48
537,815	34516,81
538,029	35591,99
538,244	35569,46
538,458	34297,67
538,673	34692,93
538,888	35469,11
539,103	36319,02
539,318	35082,05
539,533	35120,96
539,748	35741,49
539,963	35735,35
540,179	34940,74
540,394	34711,36
540,61	35927,86
540,826	35845,94
541,042	35516,22
541,258	35649,33
541,474	36869,92
541,69	36792,1
541,906	36171,57
542,123	35813,17
542,339	37021,47
542,556	36493,1
542,773	35948,34
542,99	36165,42
543,207	36902,69
543,424	36892,45
543,641	36970,27
543,858	36886,31
544,076	37343
544,293	37138,21
544,511	36460,33
544,729	36871,97
544,947	37697,3
545,165	37541,66
545,383	37095,2
545,601	37007,14
545,819	38704,9
546,038	38264,59
546,256	37695,25
546,475	37566,23
546,694	39399,16
546,913	39022,34
547,132	38598,41
547,351	38407,95
547,57	38493,96
547,79	38283,02
548,009	38225,68
548,229	38864,64
548,449	39593,72
548,668	40156,91
548,888	38848,26
549,109	38645,51
549,329	40179,44
549,549	40113,91
549,77	39055,11
549,99	39261,95
550,211	40584,94
550,432	41004,77
550,653	39593,72
550,874	39939,83
551,095	41529,05
551,316	40871,65
551,538	39806,71
551,759	40519,4
551,981	41213,66
552,203	41162,47
552,424	40330,99
552,646	41209,57
552,869	41481,95
553,091	41899,73
553,313	41074,4
553,536	41115,36
553,758	42550,99
553,981	42141,39
554,204	41379,55
554,427	42141,39
554,65	42573,52
554,873	42477,26
555,097	41531,1
555,32	41967,32
555,544	43763,39
555,768	43318,98
555,992	42329,81
556,216	42358,48
556,44	43488,96
556,664	44072,63
556,888	43157,19
557,113	43077,32
557,337	44369,58
557,562	44701,36
557,787	43126,47
558,012	43343,55
558,237	44701,36
558,462	44691,12
558,688	44306,1
558,913	43804,34
559,139	44971,69
559,365	45229,73
559,591	44005,05
559,817	44560,05
560,043	45819,55
560,269	46485,14
560,496	45199,01
560,722	45233,83
560,949	46741,13
561,176	45944,47
561,403	45442,72
561,63	45596,32
561,857	46143,13
562,084	46642,83
562,312	45989,53
562,539	46237,33
562,767	48092,79
562,995	47322,76
563,223	46327,44
563,451	46622,35
563,679	47519,36
563,908	47834,75
564,136	47351,43
564,365	47314,56
564,594	47658,62
564,823	49600,1
565,052	47994,49
565,281	47564,42
565,51	49143,4
565,74	49059,43
565,969	47945,34
566,199	48825,96
566,429	49509,99
566,659	49864,28
566,889	48367,22
567,119	48854,64
567,35	50472,53
567,58	50566,74
567,811	49849,95
568,042	49606,24
568,273	50153,05
568,504	51023,43
568,735	49968,73
568,966	50708,05
569,198	51326,53
569,43	51963,45
569,661	50435,67
569,893	51099,21
570,125	52071,99
570,358	52340,28
570,59	50835,02
570,822	51244,62
571,055	52710,96
571,288	52663,86
571,521	51703,36
571,754	51799,61
571,987	52645,43
572,22	52672,05
572,454	52389,43
572,687	52387,38
572,921	52747,82
573,155	53560,87
573,389	53155,37
573,623	52823,6
573,858	53571,11
574,092	54089,24
574,327	53212,71
574,561	53499,43
574,796	54220,31
575,031	54521,37
575,266	54015,52
575,502	54048,28
575,737	54765,07
575,973	54971,92
576,209	54148,64
576,445	54253,08
576,681	54547,99
576,917	55275,02
577,153	54621,72
577,39	54621,72
577,626	55645,7
577,863	55776,77
578,1	54779,41
578,337	55070,22
578,574	55655,94
578,812	57071,09
579,049	55569,93
579,287	55451,14
579,525	56419,83
579,763	57134,57
580,001	55657,99
580,239	56194,56
580,478	57353,71
580,716	56587,77
580,955	56210,94
581,194	56428,02
581,433	58099,17
581,672	57798,12
581,911	56526,33
582,151	57163,25
582,39	57355,75
582,63	57931,23
582,87	56864,24
583,11	57673,19
583,35	57591,27
583,591	58052,06
583,831	57310,7
584,072	57810,4
584,313	58715,61
584,554	58619,35
584,795	57652,71
585,036	58045,92
585,277	59663,81
585,519	59262,41
585,761	58129,89
586,003	58082,78
586,245	59227,6
586,487	59917,76
586,729	58764,76
586,972	58482,14
587,215	60063,17
587,457	59190,73
587,7	58914,26
587,944	58811,86
588,187	59387,34
588,43	59786,69
588,674	58688,98
588,918	58987,99
589,162	60200,38
589,406	59715,01
589,65	59401,67
589,894	59356,62
590,139	60343,74
590,384	60558,78
590,629	59364,81
590,874	59950,53
591,119	59868,61
591,364	60532,15
591,61	59495,88
591,855	59205,07
592,101	61474,22
592,347	60851,64
592,593	59952,58
592,84	59917,76
593,086	61605,29
593,333	60384,7
593,58	59518,41
593,827	60034,5
594,074	60652,98
594,321	60564,92
594,568	59788,74
594,816	59823,56
595,064	60847,54
595,312	61171,12
595,56	60143,04
595,808	60562,87
596,057	61044,15
596,305	61021,62
596,554	60030,4
596,803	60200,38
597,052	61150,64
597,301	61199,79
597,551	60190,14
597,8	60429,76
598,05	61420,97
598,3	60800,44
598,55	60233,15
598,8	60544,44
599,051	61089,2
599,301	61277,61
599,552	60616,12
599,803	60501,43
600,054	61314,48
600,305	61562,28
600,556	60487,1
600,808	60579,26
601,06	61205,94
601,312	61277,61
601,564	60755,38
601,816	60290,49
602,068	61101,49
602,321	61490,6
602,574	60110,27
602,827	60104,13
603,08	60960,18
603,333	61474,22
603,587	59872,71
603,84	60143,04
604,094	61658,54
604,348	60589,5
604,602	60085,7
604,856	60417,47
605,111	61326,77
605,365	61164,98
605,62	60558,78
605,875	59921,86
606,13	61175,22
606,386	61355,44
606,641	60370,36
606,897	59717,06
607,153	60784,05
607,409	61590,95
607,665	60087,74
607,921	60126,66
608,178	60827,06
608,435	61019,57
608,692	60597,69
608,949	60257,73
609,206	61124,02
609,463	60495,29
609,721	60454,33
609,979	60126,66
610,237	60896,69
610,495	61375,92
610,753	60347,84
611,012	59999,68
611,27	61197,74
611,529	61005,23
611,788	59991,49
612,047	60220,86
612,307	60214,72
612,566	61097,39
612,826	59645,38
613,086	60059,07
613,346	59948,48
613,606	60812,73
613,867	59698,63
614,127	59598,28
614,388	59436,49
614,649	60175,81
614,91	59395,53
615,172	59708,87
615,433	59663,81
615,695	59864,52
615,957	59448,78
616,219	59282,89
616,481	60599,74
616,743	59758,02
617,006	58398,17
617,269	59213,26
617,532	59983,3
617,795	60112,32
618,058	58645,97
618,322	58246,62
618,586	59362,76
618,849	59137,49
619,114	58947,03
619,378	57988,58
619,642	59233,74
619,907	59577,8
620,172	58428,89
620,437	58613,21
620,702	58820,05
620,967	58447,32
621,233	57560,55
621,499	57583,08
621,765	58594,78
622,031	58932,69
622,297	57349,61
622,564	57345,51
622,83	57822,69
623,097	58406,36
623,364	57980,38
623,631	57300,46
623,899	57746,92
624,166	57814,5
624,434	56677,88
624,702	56382,97
624,97	57718,24
625,239	56677,88
625,507	56497,66
625,776	56024,57
626,045	56536,57
626,314	56671,73
626,584	56380,92
626,853	55604,74
627,123	56559,09
627,393	56063,49
627,663	55264,78
627,933	55301,64
628,204	56239,61
628,474	56092,16
628,745	54873,62
629,016	55586,31
629,287	55598,6
629,559	55287,31
629,83	54513,17
630,102	54062,62
630,374	54879,76
630,646	55277,07
630,919	54007,33
631,191	54308,38
631,464	54609,43
631,737	54091,29
632,01	53595,68
632,284	52975,15
632,557	54087,2
632,831	53876,26
633,105	53335,59
633,379	52287,03
633,654	52794,93
633,928	53481
634,203	51942,97
634,478	51652,16
634,753	52756,02
635,028	52868,65
635,304	52493,88
635,58	51385,93
635,856	52284,98
636,132	52037,18
636,408	51418,69
636,685	50968,14
636,961	51754,56
637,238	51762,75
637,515	50744,91
637,793	50177,62
638,07	51344,97
638,348	51000,91
638,626	50749,01
638,904	49694,3
639,182	50368,08
639,461	50003,55
639,74	49483,36
640,019	48944,75
640,298	49043,05
640,577	49915,48
640,857	48418,42
641,136	48109,18
641,416	48846,44
641,696	49471,07
641,977	48100,98
642,257	47959,67
642,538	49014,38
642,819	49415,78
643,1	47593,09
643,382	46704,27
643,663	48721,52
643,945	48027,26
644,227	47175,3
644,509	46753,42
644,792	48051,83
645,074	47345,28
645,357	45860,51
645,64	46114,45
645,923	46517,9
646,207	47163,01
646,49	45614,75
646,774	45729,44
647,058	46257,81
647,342	46247,57
647,627	45061,8
647,911	44955,3
648,196	46118,55
648,481	45532,83
648,767	44302
649,052	44328,62
649,338	44734,12
649,624	44416,69
649,91	44062,39
650,196	43577,02
650,483	44824,23
650,77	44746,41
651,057	42964,68
651,344	43478,72
651,631	43435,71
651,919	43312,83
652,207	42284,75
652,495	42262,22
652,783	43460,29
653,071	43378,37
653,36	41490,14
653,649	41592,54
653,938	42489,55
654,227	42669,77
654,517	41699,03
654,806	41156,32
655,096	41676,51
655,387	42286,8
655,677	40967,91
655,968	40367,85
656,258	40603,37
656,549	41850,58
656,841	40535,79
657,132	39911,16
657,424	40398,57
657,716	40382,19
658,008	39231,23
658,3	39022,34
658,592	40027,89
658,885	40103,67
659,178	38278,93
659,471	38399,76
659,765	38569,74
660,058	39120,64
660,352	38129,42
660,646	37820,18
660,94	39292,67
661,235	38711,05
661,53	37578,52
661,824	37000,99
662,12	37873,43
662,415	37275,42
662,711	36716,33
663,006	36742,95
663,302	36986,66
663,599	36941,6
663,895	36097,84
664,192	35852,08
664,489	36695,85
664,786	36669,22
665,083	35176,25
665,381	34793,28
665,678	35833,65
665,976	35696,44
666,275	34420,55
666,573	34555,72
666,872	34950,98
667,171	35331,9
667,47	33828,69
667,769	33722,19
668,069	34948,93
668,368	34625,35
668,668	32878,43
668,969	33060,7
669,269	33851,22
669,57	33345,37
669,871	32692,07
670,172	32558,95
670,473	33963,86
670,775	33232,73
671,077	31999,85
671,379	32522,09
671,681	33181,53
671,983	32509,8
672,286	31008,64
672,589	31692,66
672,892	32583,52
673,196	32278,38
673,499	30539,65
673,803	30902,14
674,107	31725,43
674,411	31653,75
674,716	30240,65
675,021	30119,82
675,326	30861,18
675,631	31133,56
675,936	29603,73
676,242	29624,21
676,548	30146,44
676,854	31041,4
677,16	28981,15
677,467	29079,45
677,774	29659,02
678,081	29751,18
678,388	28757,92
678,696	28544,93
679,004	29642,64
679,312	29665,17
679,62	27965,35
679,928	27705,26
680,237	29140,89
680,546	28110,76
680,855	27467,7
681,164	27148,22
681,474	27942,83
681,784	28323,75
682,094	27152,31
682,404	26195,91
682,715	27654,06
683,026	27164,6
683,337	26066,89
683,648	26169,29
683,959	27346,87
684,271	27113,4
684,583	25704,4
684,895	25384,91
685,208	26793,92
685,52	26478,53
685,833	25145,3
686,146	25051,1
686,46	26376,13
686,773	25782,22
687,087	24176,61
687,401	24422,37
687,716	25276,37
688,03	25485,26
688,345	23769,07
688,66	24309,73
688,975	24987,61
689,291	24831,96
689,607	23783,4
689,923	23181,3
690,239	24410,08
690,555	24209,38
690,872	22964,21
691,189	22628,35
691,506	23465,97
691,824	24188,9
692,142	22462,46
692,459	22331,39
692,778	22966,26
693,096	22958,07
693,415	22175,75
693,734	21774,35
694,053	22368,26
694,372	21968,9
694,692	21354,51
695,012	21471,25
695,332	21952,52
695,652	22202,37
695,973	20953,11
696,294	20834,33
696,615	21295,12
696,936	22099,97
697,258	20254,75
697,579	19892,26
697,902	20842,52
698,224	21000,21
698,546	19877,93
698,869	19929,13
699,192	20801,56
699,516	21157,91
699,839	19370,03
700,163	19619,88
700,487	20027,43
700,811	20746,26
701,136	18804,79
701,461	18755,64
701,786	19800,1
702,111	20242,46
702,436	18010,18
702,762	18597,95
703,088	19740,71
703,415	20027,43
703,741	18239,55
704,068	17803,33
704,395	18591,8
704,722	19062,83
705,05	17647,69
705,377	17723,46
705,705	18630,71
706,034	18442,3
706,362	17004,63
706,691	16939,09
707,02	18350,14
707,349	18292,8
707,679	16609,37
708,009	16635,99
708,339	17807,43
708,669	17602,63
709	16355,42
709,33	16255,07
709,661	17350,73
709,993	16879,7
710,324	16164,96
710,656	15951,97
710,988	17080,4
711,321	17115,22
711,653	15319,15
711,986	15519,85
712,319	16007,27
712,652	16570,46
712,986	15566,95
713,32	15024,24
713,654	16760,92
713,988	16681,05
714,323	15255,66
714,658	15020,14
714,993	15810,66
715,328	15695,97
715,664	14872,69
716	14915,7
716,336	15874,15
716,673	15392,87
717,009	14536,82
717,346	14344,31
717,683	15904,87
718,021	15317,1
718,359	13996,16
718,697	14131,33
719,035	14516,34
719,373	14387,32
719,712	13500,55
720,051	13361,29
720,39	14545,02
720,73	14532,73
721,07	13373,58
721,41	13267,08
721,75	14463,1
722,091	13969,54
722,432	13156,49
722,773	13105,29
723,114	13781,12
723,456	13795,46
723,798	12544,15
724,14	12640,4
724,482	13045,9
724,825	13512,84
725,168	12529,81
725,511	12341,4
725,855	13099,15
726,198	13011,09
726,542	11808,93
726,887	12255,39
727,231	13316,23
727,576	12376,22
727,921	11770,02
728,266	11634,85
728,612	12415,13
728,958	12783,76
729,304	11255,98
729,651	11800,74
729,997	12206,24
730,344	12003,49
730,691	11124,91
731,039	11215,02
731,387	12322,97
731,735	11763,87
732,083	10899,63
732,431	10793,14
732,78	11528,36
733,129	10756,27
733,479	10344,63
733,828	10727,6
734,178	11501,73
734,528	10971,31
734,879	10494,13
735,23	9953,47
735,581	11323,56
735,932	10985,65
736,283	10086,59
736,635	9930,94
736,987	11456,68
737,34	11227,31
737,692	9681,09
738,045	9681,09
738,398	10639,54
738,752	10604,72
739,105	9296,07
739,459	9842,88
739,814	10725,55
740,168	10807,47
740,523	9189,58
740,878	9351,37
741,233	10168,51
741,589	10191,03
741,945	8982,73
742,301	9171,15
742,657	10123,45
743,014	9558,21
743,371	8915,15
743,728	9185,48
744,086	9629,89
744,444	9552,07
744,802	8448,21
745,16	8444,12
745,519	9670,85
745,878	9343,17
746,237	8198,36
746,597	8423,64
746,956	9662,66
747,316	9314,5
747,677	7889,12
748,037	8212,7
748,398	8739,02
748,759	9089,23
749,121	8157,4
749,482	8100,06
749,844	8397,01
750,207	8280,28
750,569	7432,42
750,932	7676,13
751,295	9175,24
751,659	8462,55
752,022	7319,78
752,386	7934,17
752,751	8325,33
753,115	7866,59
753,48	7577,83
753,845	7389,41
754,21	8165,59
754,576	7729,38
754,942	6779,12
755,308	7307,49
755,675	7676,13
756,041	8368,34
756,409	6553,84
756,776	7051,5
757,144	8274,14
757,511	8022,23
757,88	6430,96
758,248	6328,56
758,617	7041,26
758,986	7669,98
759,355	6635,76
759,725	6361,33
760,095	6967,53
760,465	7610,59
760,836	6193,4
761,206	6308,09
761,577	7629,02
761,949	6838,51
762,32	6480,11
762,692	5802,24
763,065	6930,67
763,437	6703,34
763,81	5771,52
764,183	6082,81
764,556	7145,7
764,93	6758,64
765,304	6103,29
765,678	6074,62
766,053	6541,55
766,428	6461,68
766,803	5329,16
767,178	5499,14
767,554	5894,4
767,93	6170,87
768,306	5333,25
768,683	5335,3
769,06	6588,66
769,437	6209,78
769,814	4880,65
770,192	4983,05
770,57	6097,14
770,948	6848,75
771,327	5275,91
771,706	4856,08
772,085	6205,69
772,464	6433,01
772,844	5128,46
773,224	4768,01
773,605	5449,99
773,985	5525,76
774,366	4784,4
774,748	5148,93
775,129	6086,9
775,511	5890,3
775,893	4731,15
776,276	4679,95
776,658	5929,21
777,041	5708,03
777,425	4288,79
777,808	4581,65
778,192	5124,36
778,576	5759,23
778,961	4231,44
779,346	4374,8
779,731	5523,71
780,116	4841,74
780,502	4305,17
780,888	4309,27
781,274	5284,1
781,661	4837,64
782,048	4030,74
782,435	4088,09
782,823	4866,32
783,21	5130,5
783,598	3979,54
783,987	4215,06
784,376	5343,49
784,765	4796,68
785,154	3952,92
785,544	3811,61
785,933	4925,71
786,324	4593,94
786,714	4071,7
787,105	3596,57
787,496	4784,4
787,888	4456,72
788,279	3572
788,671	3420,45
789,064	4563,22
789,456	4638,99
789,849	3273
790,242	3252,52
790,636	4133,14
791,03	4432,15
791,424	3295,52
791,818	3959,06
792,213	4481,3
792,608	4385,04
793,004	3631,39
793,399	2957,61
793,795	4237,59
794,192	4022,55
794,588	3189,03
794,985	2883,88
795,382	4200,73
795,78	3963,16
796,178	3035,43
796,576	2945,32
796,974	4682
797,373	3916,06
797,772	2943,27
798,172	2810,15
798,571	3803,42
798,971	4266,26
799,372	3062,05
799,772	2922,79
800,173	4114,71
800,574	3793,18
800,976	2720,04
801,378	2613,55
801,78	3473,7
802,182	3119,4
802,585	2851,11
802,988	2744,62
803,392	3385,63
803,795	3264,8
804,199	2445,62
804,604	2666,8
805,008	3645,73
805,413	4002,07
805,819	2478,38
806,224	2244,92
806,63	3432,74
807,036	3459,36
807,443	2523,44
807,85	2408,75
808,257	3465,5
808,664	3389,73
809,072	2756,91
809,48	2521,39
809,889	3537,18
810,297	3498,27
810,706	2720,04
811,116	2187,57
811,526	3074,34
811,936	3045,67
812,346	2169,14
812,757	2140,47
813,167	3051,81
813,579	2855,21
813,99	2093,37
814,402	1874,23
814,814	3391,78
815,227	2883,88
815,64	1933,62
816,053	2066,74
816,467	3162,41
816,88	2982,18
817,294	2298,16
817,709	2214,2
818,124	2812,2
818,539	3279,14
818,954	2023,73
819,37	2244,92
819,786	2593,07
820,202	3084,58
820,619	1507,65
821,036	1845,56
821,453	3096,87
821,871	2634,03
822,289	1683,77
822,707	1698,11
823,126	2906,41
823,545	2416,94
823,964	1704,25
824,384	1640,76
824,804	2294,07
825,224	2703,66
825,645	1870,14
826,065	1552,7
826,487	2797,87
826,908	2810,15
827,33	1536,32
827,752	1970,49
828,175	2615,6
828,598	2687,28
829,021	1761,59
829,444	2163
829,868	2670,89
830,292	2097,46
830,717	1231,17
831,142	1304,9
831,567	2005,3
831,992	2322,74
832,418	1950,01
832,844	1249,6
833,27	2416,94
833,697	2191,67
834,124	1208,64
834,552	1069,38
834,979	2627,89
835,408	2457,9
835,836	1030,47
836,265	1313,09
836,694	1945,91
837,123	2343,22
837,553	1108,29
837,983	1155,4
838,413	2363,7
838,844	2226,48
839,275	987,46
839,706	1472,83
840,138	2687,28
840,57	1872,18
841,003	1139,01
841,435	1259,84
841,868	1956,15
842,302	2001,21
842,735	1212,74
843,169	915,78
843,604	2036,02
844,039	1972,54
844,474	975,17
844,909	1012,04
845,345	2117,94
845,781	2195,76
846,217	1003,85
846,654	778,57
847,091	2101,56
847,528	1790,27
847,966	944,45
848,404	958,79
848,842	2427,18
849,281	1233,22
849,72	952,65
850,16	778,57
850,599	1651
851,039	1548,61
851,48	1249,6
851,921	936,26
852,362	2011,45
852,803	2261,3
853,245	508,24
853,687	770,38
854,129	2056,5
854,572	1485,12
855,015	588,11
855,459	766,28
855,903	1433,92
856,347	2009,4
856,791	901,45
857,236	700,75
857,681	2181,43
858,127	2412,85
858,572	964,93
859,019	682,31
859,465	1927,48
859,912	1753,4
860,359	581,96
860,807	569,68
861,255	1433,92
861,703	1919,29
862,151	672,08
862,6	1132,87
863,05	1802,55
863,499	1315,14
863,949	653,64
864,4	428,37
864,85	1968,44
865,301	1753,4
865,752	569,68
866,204	485,71
866,656	1284,42
867,109	1929,53
867,561	483,66
868,014	663,88
868,468	1642,81
868,921	1775,93
869,376	614,73
869,83	493,9
870,285	1573,18
870,74	1167,68
871,195	600,4
871,651	571,72
872,107	1993,01
872,564	1263,94
873,021	303,44
873,478	215,38
873,936	1761,59
874,394	1622,33
874,852	401,74
875,31	569,68
875,769	1345,86
876,229	2056,5
876,688	581,96
877,148	477,52
877,609	1327,43
878,069	1147,2
878,531	670,03
878,992	295,25
879,454	1206,59
879,916	1341,76
880,378	352,59
880,841	311,63
881,304	766,28
881,768	979,27
882,232	252,24
882,696	487,76
883,161	909,64
883,626	1225,03
884,091	250,19
884,557	188,75
885,023	852,3
885,489	1583,42
885,956	57,68
886,423	143,7
886,89	710,99
887,358	1106,24
887,826	125,27
888,295	174,42
888,763	917,83
889,233	1739,07
889,702	205,14
890,172	155,99
890,642	1087,81
891,113	1063,24
891,584	471,37
892,055	213,33
892,527	1261,89
892,999	1548,61
893,472	76,12
893,944	377,17
894,417	1071,43
894,891	819,53
895,365	328,02
895,839	205,14
896,314	1093,96
896,789	364,88
897,264	92,5
897,74	-24,23
898,216	1462,59
898,692	1372,48
899,169	10,58
899,646	65,88
900,123	1169,73
900,601	1524,03
901,079	-9,9
901,558	242
902,037	1446,21
902,516	1012,04
902,996	-44,71
903,476	-81,58
903,956	821,58
904,437	1265,99
904,918	12,63
905,399	-114,34
905,881	1212,74
906,363	1278,27
906,846	-44,71
907,329	115,03
907,812	549,2
908,296	1163,59
908,78	-147,11
909,264	-67,24
909,749	799,05
910,234	1343,81
910,719	-48,81
911,205	209,23
911,691	409,94
912,178	1165,64
912,665	454,99
913,152	16,73
913,64	739,66
914,128	1171,78
914,616	20,82
915,105	-11,95
915,594	1012,04
916,084	1438,02
916,574	82,26
917,064	-112,3
917,555	483,66
918,046	1065,29
918,537	469,33
919,029	-384,68
919,521	874,82
920,013	1364,29
920,506	82,26
920,999	-136,87
921,493	1184,07
921,987	739,66
922,481	131,41
922,976	-42,67
923,471	784,71
923,967	870,73
924,462	-40,62
924,959	-24,23
925,455	1128,77
925,952	921,93
926,449	-134,82
926,947	-128,68
927,445	852,3
927,944	862,54
928,442	-493,22
928,942	-235,18
929,441	1022,28
929,941	573,77
930,442	-136,87
930,942	-200,36
931,443	1106,24
931,945	461,13
932,447	-179,88
932,949	-143,02
933,451	723,27
933,954	794,95
934,458	-5,8
934,961	-220,84
935,465	549,2
935,97	354,64
936,475	-48,81
936,98	-245,41
937,486	196,95
937,992	688,46
938,498	-75,43
939,005	-71,34
939,512	592,2
940,019	786,76
940,527	-11,95
941,035	106,84
941,544	985,41
942,053	731,47
942,562	131,41
943,072	262,48
943,582	999,75
944,093	647,5
944,604	-343,72
945,115	-247,46
945,627	1161,54
946,139	1247,55
946,651	-155,3
947,164	-112,3
947,677	934,22
948,191	786,76
948,705	-310,95
949,219	-337,57
949,734	557,39
950,249	921,93
950,765	-294,57
951,281	-261,8
951,797	1747,26
952,314	1136,96
952,831	-224,94
953,348	-464,55
953,866	1024,33
954,384	498
954,903	-362,15
955,422	-482,98
955,941	592,2
956,461	721,23
956,981	-278,18
957,502	-67,24
958,023	864,58
958,544	819,53
959,066	-161,45
959,588	-396,96
960,11	373,07
960,633	1057,09
961,156	-204,46
961,68	-216,74
962,204	1050,95
962,729	356,69
963,253	-331,43
963,779	319,82
964,304	946,5
964,83	1274,18
965,357	-466,6
965,883	-196,26
966,411	700,75
966,938	876,87
967,466	-302,76
967,994	-497,32
968,523	575,82
969,052	1145,16
969,582	-401,06
970,112	-362,15
970,642	336,21
971,173	966,98
971,704	-372,39
972,235	-147,11
972,767	702,79
973,3	534,86
973,832	-122,54
974,365	-523,94
974,899	774,47
975,433	737,61
975,967	-532,13
976,502	-122,54
977,037	606,54
977,572	1106,24
978,108	-423,59
978,644	-599,71
979,181	1257,79
979,718	887,11
980,255	-679,58
980,793	-220,84
981,331	-9,9
981,87	844,1
982,409	-370,34
982,948	-151,21
983,488	530,77
984,028	1040,71
984,569	-261,8
985,11	-282,28
985,651	975,17
986,193	786,76
986,735	-548,51
987,278	-509,6
987,821	43,35
988,364	598,35
988,908	-212,65
989,452	-509,6
989,997	-138,92
990,542	743,75
991,088	-448,16
991,633	-63,15
992,18	430,41
992,726	37,2
993,273	-442,02
993,821	-306,85
994,369	534,86
994,917	909,64
995,465	-542,37
996,014	-587,43
996,564	762,19
997,114	295,25
997,664	-112,3
998,215	-521,89
998,766	676,17
999,317	8,53
999,869	-212,65
1000,421	-525,99
1000,974	819,53
1001,527	778,57
1002,081	-442,02
1002,635	-122,54
1003,189	579,92
1003,744	862,54
1004,299	-767,65
1004,854	-425,64
1005,41	915,78
1005,967	364,88
1006,523	-319,14
1007,081	-374,44
1007,638	622,92
1008,196	704,84
1008,755	-536,23
1009,313	-257,7
1009,873	745,8
1010,432	235,86
1010,992	-347,81
1011,553	-306,85
1012,114	590,16
1012,675	135,51
1013,237	-319,14
1013,799	-57
1014,361	727,37
1014,924	22,87
1015,487	-607,91
1016,051	-372,39
1016,615	901,45
1017,18	680,27
1017,745	-507,55
1018,31	-7,85
1018,876	1069,38
1019,442	477,52
1020,009	-323,24
1020,576	-743,07
1021,143	366,93
1021,711	934,22
1022,28	-341,67
1022,848	-450,21
1023,417	952,65
1023,987	442,7
1024,557	-458,4
1025,127	-468,64
1025,698	51,54
1026,269	94,55
1026,841	-577,19
1027,413	-380,58
1027,985	282,96
1028,558	457,04
1029,131	-620,19
1029,705	-257,7
1030,279	571,72
1030,854	565,58
1031,429	-540,32
1032,004	-136,87
1032,58	753,99
1033,156	198,99
1033,733	-446,12
1034,31	-499,36
1034,887	756,04
1035,465	829,77
1036,043	-816,8
1036,622	-466,6
1037,201	364,88
1037,781	815,43
1038,361	-573,09
1038,941	-620,19
1039,522	655,69
1040,103	897,35
1040,685	-548,51
1041,267	-220,84
1041,85	1270,08
1042,433	735,56
1043,016	-548,51
1043,6	-388,77
1044,184	-171,69
1044,769	694,6
1045,354	-403,11
1045,939	-634,53
1046,525	459,09
1047,111	569,68
1047,698	-384,68
1048,285	-663,2
1048,873	655,69
1049,461	43,35
1050,049	-540,32
1050,638	-659,1
1051,228	131,41
1051,817	852,3
1052,407	-671,39
1052,998	-276,13
1053,589	577,87
1054,18	618,83
1054,772	-788,13
1055,365	-528,03
1055,957	584,01
1056,55	307,54
1057,144	-431,78
1057,738	-622,24
1058,333	264,53
1058,927	201,04
1059,523	-435,88
1060,118	-618,15
1060,715	176,47
1061,311	663,88
1061,908	-675,49
1062,506	-427,68
1063,103	643,4
1063,702	98,64
1064,3	-827,04
1064,9	-587,43
1065,499	940,36
1066,099	215,38
1066,7	-562,85
1067,301	-859,81
1067,902	774,47
1068,504	801,1
1069,106	-310,95
1069,709	-380,58
1070,312	897,35
1070,915	477,52
1071,519	-497,32
1072,123	-388,77
1072,728	704,84
1073,333	459,09
1073,939	-179,88
1074,545	-495,27
1075,152	663,88
1075,759	174,42
1076,366	-638,62
1076,974	-317,09
1077,582	385,36
1078,191	733,51
1078,8	-444,07
1079,41	-800,41
1080,02	420,17
1080,63	483,66
1081,241	-24,23
1081,852	-853,66
1082,464	510,29
1083,076	409,94
1083,689	-603,81
1084,302	-417,44
1084,915	844,1
1085,529	606,54
1086,144	-562,85
1086,759	-507,55
1087,374	205,14
1087,99	450,89
1088,606	-534,18
1089,222	-495,27
1089,839	565,58
1090,457	264,53
1091,075	-413,35
1091,693	-724,64
1092,312	622,92
1092,931	971,08
1093,551	-638,62
1094,171	-183,98
1094,792	543,05
1095,413	221,52
1096,034	-489,12
1096,656	-433,83
1097,278	704,84
1097,901	477,52
1098,524	-603,81
1099,148	-358,05
1099,772	893,26
1100,397	444,75
1101,022	-655,01
1101,647	-538,27
1102,273	491,85
1102,899	753,99
1103,526	-802,46
1104,153	-388,77
1104,781	758,09
1105,409	860,49
1106,038	-630,43
1106,667	-769,69
1107,296	242
1107,926	315,73
1108,556	-175,78
1109,187	-456,36
1109,818	461,13
1110,45	663,88
1111,082	-487,08
1111,715	-548,51
1112,348	489,81
1112,981	377,17
1113,615	-286,37
1114,25	-517,79
1114,885	262,48
1115,52	291,15
1116,156	-790,17
1116,792	-503,46
1117,428	510,29
1118,066	180,56
1118,703	-229,03
1119,341	-499,36
1119,98	708,94
1120,618	876,87
1121,258	-790,17
1121,898	-765,6
1122,538	393,55
1123,179	41,3
1123,82	-474,79
1124,461	-423,59
1125,103	770,38
1125,746	248,15
1126,389	-362,15
1127,032	-728,74
1127,676	561,48
1128,32	934,22
1128,965	-491,17
1129,61	-392,87
1130,256	155,99
1130,902	792,91
1131,549	-482,98
1132,196	-581,28
1132,844	794,95
1133,491	700,75
1134,14	-571,04
1134,789	-530,08
1135,438	1069,38
1136,088	106,84
1136,738	-728,74
1137,389	-638,62
1138,04	475,47
1138,692	934,22
1139,344	-663,2
1139,996	-661,15
1140,649	549,2
1141,303	661,84
1141,957	-456,36
1142,611	-530,08
1143,266	368,98
1143,921	483,66
1144,577	-554,66
1145,233	-564,9
1145,89	162,13
1146,547	534,86
1147,205	-734,88
1147,863	-487,08
1148,521	407,89
1149,18	721,23
1149,84	-732,83
1150,5	-609,95
1151,16	301,39
1151,821	721,23
1152,482	-536,23
1153,144	-69,29
1153,806	393,55
1154,469	559,44
1155,132	-716,45
1155,796	-505,51
1156,46	696,65
1157,124	1057,09
1157,789	-646,82
1158,455	-634,53
1159,121	502,09
1159,787	45,4
1160,454	-474,79
1161,121	-499,36
1161,789	285,01
1162,457	655,69
1163,126	-450,21
1163,795	-554,66
1164,465	463,18
1165,135	270,67
1165,806	-476,84
1166,477	-442,02
1167,148	-239,27
1167,82	524,62
1168,493	-806,56
1169,166	-370,34
1169,839	80,21
1170,513	397,65
1171,187	-708,26
1171,862	-632,48
1172,537	256,34
1173,213	551,24
1173,889	-589,47
1174,566	-571,04
1175,243	790,86
1175,921	205,14
1176,599	-433,83
1177,278	-302,76
1177,957	18,77
1178,636	753,99
1179,316	-364,2
1179,997	-698,02
1180,678	612,68
1181,359	803,15
1182,041	-679,58
1182,723	-679,58
1183,406	672,08
1184,089	158,03
1184,773	-775,84
1185,457	-728,74
1186,142	139,6
1186,827	1278,27
1187,513	-679,58
1188,199	-243,37
1188,886	209,23
1189,573	313,68
1190,26	-581,28
1190,948	-626,34
1191,637	0,34
1192,326	250,19
1193,015	-626,34
1193,705	-734,88
1194,396	217,43
1195,087	254,29
1195,778	-360,1
1196,47	-646,82
1197,162	454,99
1197,855	518,48
1198,548	-587,43
1199,242	-849,57
1199,936	518,48
1200,631	721,23
1201,326	-777,89
1202,022	-640,67
1202,718	739,66
1203,415	532,81
1204,112	-853,66
1204,81	-493,22
1205,508	196,95
1206,206	1110,34
1206,905	-595,62
1207,605	-693,92
1208,305	426,32
1209,005	454,99
1209,706	-761,5
1210,408	-695,97
1211,11	381,26
1211,812	475,47
1212,515	-462,5
1213,218	-523,94
1213,922	340,3
1214,627	317,78
1215,331	-499,36
1216,037	-515,75
1216,743	26,96
1217,449	512,33
1218,156	-519,84
1218,863	-499,36
1219,571	215,38
1220,279	848,2
1220,988	-693,92
1221,697	-581,28
1222,406	629,07
1223,117	219,47
1223,827	-480,93
1224,538	-630,43
1225,25	368,98
1225,962	401,74
1226,675	-898,72
1227,388	-507,55
1228,101	282,96
1228,815	51,54
1229,53	-489,12
1230,245	-466,6
1230,961	471,37
1231,677	352,59
1232,393	-528,03
1233,11	-571,04
1233,828	954,69
1234,546	526,67
1235,264	-548,51
1235,983	-214,7
1236,702	1089,86
1237,422	411,98
1238,143	-335,53
1238,864	-630,43
1239,585	663,88
1240,307	-245,41
1241,029	-806,56
1241,752	-380,58
1242,476	594,25
1243,2	837,96
1243,924	-503,46
1244,649	-464,55
1245,374	690,51
1246,1	897,35
1246,826	-841,37
1247,553	-589,47
1248,28	504,14
1249,008	606,54
1249,737	-720,54
1250,465	-364,2
1251,195	483,66
1251,925	733,51
1252,655	-612
1253,386	-300,71
1254,117	444,75
1254,849	291,15
1255,581	-597,67
1256,314	-542,37
1257,047	766,28
1257,781	602,44
1258,515	-648,86
1259,25	-186,02
1259,985	356,69
1260,721	452,94
1261,457	-515,75
1262,194	-794,27
1262,931	282,96
1263,669	821,58
1264,407	-335,53
1265,146	-759,46
1265,885	360,78
1266,625	237,91
1267,365	-581,28
1268,106	-616,1
1268,847	545,1
1269,589	155,99
1270,331	-333,48
1271,074	-482,98
1271,817	389,46
1272,561	442,7
1273,305	-376,48
1274,05	-454,31
1274,795	397,65
1275,541	364,88
1276,287	-870,05
1277,034	-749,22
1277,781	65,88
1278,529	602,44
1279,277	-833,18
1280,026	-824,99
1280,775	844,1
1281,525	-362,15
1282,275	-892,57
1283,026	-122,54
1283,777	371,02
1284,529	487,76
1285,281	-556,71
1286,034	-831,13
1286,788	696,65
1287,541	360,78
1288,296	-814,75
1289,051	-427,68
1289,806	502,09
1290,562	561,48
1291,318	-663,2
1292,075	-511,65
1292,832	823,62
1293,59	852,3
1294,349	-679,58
1295,108	-612
1295,867	1089,86
1296,627	584,01
1297,387	-829,09
1298,148	-523,94
1298,91	401,74
1299,672	57,68
1300,434	-683,68
1301,197	-753,31
1301,961	1386,82
1302,725	319,82
1303,489	-390,82
1304,254	-491,17
1305,02	448,85
1305,786	868,68
1306,552	-1007,26
1307,319	-880,29
1308,087	837,96
1308,855	799,05
1309,624	-663,2
1310,393	-437,92
1311,162	-186,02
1311,933	651,6
1312,703	-554,66
1313,474	-401,06
1314,246	397,65
1315,018	631,12
1315,791	-323,24
1316,564	-724,64
1317,338	584,01
1318,112	274,77
1318,887	-741,02
1319,662	-489,12
1320,438	446,8
1321,214	227,67
1321,991	-507,55
1322,769	-657,06
1323,546	395,6
1324,325	166,23
1325,104	-679,58
1325,883	-517,79
1326,663	-73,39
1327,444	393,55
1328,224	-548,51
1329,006	-540,32
1329,788	397,65
1330,571	411,98
1331,354	-310,95
1332,137	-677,54
1332,921	680,27
1333,706	-118,44
1334,491	-407,2
1335,277	-507,55
1336,063	115,03
1336,849	248,15
1337,637	-788,13
1338,424	-622,24
1339,213	991,56
1340,001	897,35
1340,791	-769,69
1341,581	-302,76
1342,371	616,78
1343,162	385,36
1343,953	-614,05
1344,745	-388,77
1345,537	450,89
1346,33	584,01
1347,124	-566,95
1347,918	-368,29
1348,712	975,17
1349,507	627,02
1350,303	-587,43
1351,099	-495,27
1351,896	115,03
1352,693	-208,55
1353,49	-556,71
1354,289	-568,99
1355,087	569,68
1355,887	760,14
1356,686	-491,17
1357,487	-597,67
1358,288	160,08
1359,089	297,3
1359,891	-253,61
1360,693	-560,8
1361,496	-175,78
1362,3	344,4
1363,104	-622,24
1363,908	-620,19
1364,713	913,74
1365,519	950,6
1366,325	-595,62
1367,131	-769,69
1367,939	225,62
1368,746	848,2
1369,555	-892,57
1370,363	-605,86
1371,173	911,69
1371,982	1317,19
1372,793	-687,78
1373,604	-890,53
1374,415	653,64
1375,227	905,54
1376,039	-757,41
1376,852	-685,73
1377,666	1036,61
1378,48	348,5
1379,295	-698,02
1380,11	-757,41
1380,925	74,07
1381,742	950,6
1382,558	-624,29
1383,376	-626,34
1384,193	401,74
1385,012	221,52
1385,831	-700,06
1386,65	-573,09
1387,47	149,84
1388,29	231,76
1389,111	-593,57
1389,933	-741,02
1390,755	819,53
1391,578	260,43
1392,401	-839,33
1393,225	-646,82
1394,049	782,67
1394,873	305,49
1395,699	-726,69
1396,525	-466,6
1397,351	745,8
1398,178	78,16
1399,005	-548,51
1399,833	-1003,16
1400,662	565,58
1401,491	966,98
1402,321	-556,71
1403,151	-521,89
1403,981	504,14
1404,813	532,81
1405,644	-364,2
1406,477	-743,07
1407,309	315,73
1408,143	1114,44
1408,977	-667,3
1409,811	-626,34
1410,646	1032,52
1411,482	840,01
1412,318	-468,64
1413,155	-642,72
1413,992	631,12
1414,829	82,26
1415,668	-638,62
1416,506	-401,06
1417,346	876,87
1418,186	446,8
1419,026	-568,99
1419,867	-820,89
1420,709	627,02
1421,551	651,6
1422,393	-886,43
1423,236	-437,92
1424,08	438,61
1424,924	395,6
1425,769	-704,16
1426,614	-652,96
1427,46	446,8
1428,307	256,34
1429,154	-882,33
1430,001	-794,27
1430,849	452,94
1431,698	366,93
1432,547	-884,38
1433,397	-886,43
1434,247	659,79
1435,098	940,36
1435,949	-577,19
1436,801	-671,39
1437,653	219,47
1438,506	727,37
1439,36	-917,15
1440,214	-718,5
1441,069	665,93
1441,924	377,17
1442,78	-685,73
1443,636	-822,94
1444,493	280,91
1445,35	473,42
1446,208	-423,59
1447,067	-743,07
1447,926	471,37
1448,785	878,92
1449,645	-669,34
1450,506	-689,82
1451,367	434,51
1452,229	84,31
1453,091	-736,93
1453,954	-284,33
1454,818	231,76
1455,682	414,03
1456,546	-618,15
1457,412	-835,23
1458,277	799,05
1459,143	285,01
1460,01	-462,5
1460,878	-718,5
1461,745	371,02
1462,614	115,03
1463,483	-831,13
1464,352	-433,83
1465,223	772,43
1466,093	688,46
1466,964	-736,93
1467,836	-773,79
1468,709	729,42
1469,581	409,94
1470,455	-462,5
1471,329	-693,92
1472,203	-7,85
1473,079	127,32
1473,954	-196,26
1474,831	-814,75
1475,707	217,43
1476,585	264,53
1477,463	-724,64
1478,341	-577,19
1479,22	24,92
1480,1	479,57
1480,98	-927,39
1481,861	-839,33
1482,742	459,09
1483,624	612,68
1484,506	-425,64
1485,389	-528,03
1486,273	250,19
1487,157	205,14
1488,041	-751,26
1488,926	-904,86
1489,812	516,43
1490,699	434,51
1491,585	-597,67
1492,473	-556,71
1493,361	-71,34
1494,249	311,63
1495,139	-521,89
1496,028	-538,27
1496,919	-36,52
1497,809	534,86
1498,701	-716,45
1499,593	-552,61
1500,485	280,91
1501,378	770,38
1502,272	-384,68
1503,166	-616,1
1504,061	735,56
1504,956	450,89
1505,852	-693,92
1506,749	-769,69
1507,646	594,25
1508,543	368,98
1509,442	-896,67
1510,34	-83,63
1511,24	995,65
1512,14	379,22
1513,04	-605,86
1513,941	-835,23
1514,843	1106,24
1515,745	-36,52
1516,648	-638,62
1517,551	-775,84
1518,455	-40,62
1519,359	-239,27
1520,264	-698,02
1521,17	-781,98
1522,076	225,62
1522,983	559,44
1523,89	-851,61
1524,798	-423,59
1525,706	344,4
1526,615	1491,26
1527,525	-884,38
1528,435	-597,67
1529,346	692,55
1530,257	94,55
1531,169	-353,96
1532,081	-743,07
1532,994	1077,57
1533,908	274,77
1534,822	-669,34
1535,737	-556,71
1536,652	362,83
1537,568	371,02
1538,484	-603,81
1539,401	-976,54
1540,319	790,86
1541,237	-20,14
1542,156	-798,37
1543,075	-706,21
1543,995	1030,47
1544,916	1106,24
1545,837	-734,88
1546,758	-786,08
1547,68	753,99
1548,603	545,1
1549,527	-499,36
1550,451	-734,88
1551,375	469,33
1552,3	797
1553,226	-892,57
1554,152	-777,89
1555,079	827,72
1556,006	393,55
1556,934	-470,69
1557,863	-593,57
1558,792	987,46
1559,722	59,73
1560,652	-540,32
1561,583	-792,22
1562,514	53,59
1563,446	182,61
1564,379	-999,07
1565,312	-470,69
1566,246	807,24
1567,18	311,63
1568,115	-669,34
1569,051	-698,02
1569,987	852,3
1570,924	999,75
1571,861	-857,76
1572,799	-552,61
1573,737	698,7
1574,676	371,02
1575,616	-519,84
1576,556	-722,59
1577,497	-28,33
1578,438	117,08
1579,38	-704,16
1580,323	-499,36
1581,266	483,66
1582,21	797
1583,154	-685,73
1584,099	-888,48
1585,044	581,96
1585,99	766,28
1586,937	-343,72
1587,884	-560,8
1588,832	352,59
1589,78	934,22
1590,729	-652,96
1591,679	-374,44
1592,629	403,79
1593,58	557,39
1594,531	-487,08
1595,483	-540,32
1596,435	231,76
1597,388	110,93
1598,342	-313
1599,296	-462,5
1600,251	434,51
1601,207	743,75
1602,163	-605,86
1603,119	-732,83
1604,077	797
1605,034	885,06
1605,993	-442,02
1606,952	65,88
1607,911	198,99
1608,872	409,94
1609,832	-751,26
1610,794	-800,41
1611,756	629,07
1612,718	532,81
1613,681	-360,1
1614,645	-636,58
1615,609	797
1616,574	332,11
1617,54	-202,41
1618,506	-642,72
1619,472	805,19
1620,44	702,79
1621,408	-147,11
1622,376	-589,47
1623,345	387,41
1624,315	766,28
1625,285	-519,84
1626,256	-401,06
1627,227	520,53
1628,199	-52,91
1629,172	-538,27
1630,145	-337,57
1631,119	389,46
1632,094	1089,86
1633,069	-589,47
1634,044	-259,75
1635,02	233,81
1635,997	665,93
1636,975	-603,81
1637,953	-859,81
1638,931	1014,09
1639,911	112,98
1640,89	-724,64
1641,871	-521,89
1642,852	559,44
1643,833	479,57
1644,816	-736,93
1645,798	-814,75
1646,782	944,45
1647,766	184,66
1648,75	-704,16
1649,736	-669,34
1650,721	-34,47
1651,708	489,81
1652,695	-624,29
1653,682	-546,47
1654,671	416,08
1655,66	581,96
1656,649	-659,1
1657,639	-669,34
1658,63	-93,87
1659,621	311,63
1660,613	-884,38
1661,605	-863,9
1662,598	352,59
1663,592	246,1
1664,586	-888,48
1665,581	-765,6
1666,576	221,52
1667,572	340,3
1668,569	-636,58
1669,566	-779,93
1670,564	477,52
1671,563	825,67
1672,562	-769,69
1673,562	-384,68
1674,562	479,57
1675,563	479,57
1676,564	-401,06
1677,566	-628,39
1678,569	983,37
1679,572	-261,8
1680,576	-548,51
1681,581	-671,39
1682,586	303,44
1683,592	598,35
1684,598	-605,86
1685,605	-437,92
1686,613	706,89
1687,621	270,67
1688,63	-462,5
1689,639	-458,4
1690,649	313,68
1691,66	438,61
1692,671	-480,93
1693,683	-741,02
1694,696	6,49
1695,709	500,05
1696,722	-691,87
1697,737	-509,6
1698,752	147,8
1699,767	581,96
1700,783	-550,56
1701,8	-466,6
1702,818	338,26
1703,836	-71,34
1704,854	-915,1
1705,873	-624,29
1706,893	205,14
1707,914	446,8
1708,935	-601,76
1709,956	-671,39
1710,979	360,78
1712,002	307,54
1713,025	-650,91
1714,049	-532,13
1715,074	487,76
1716,099	649,55
1717,125	-777,89
1718,152	-831,13
1719,179	160,08
1720,207	801,1
1721,235	-20,14
1722,265	-243,37
1723,294	364,88
1724,325	139,6
1725,355	-528,03
1726,387	-466,6
1727,419	356,69
1728,452	627,02
1729,485	-466,6
1730,519	-700,06
1731,554	41,3
1732,589	504,14
1733,625	-802,46
1734,662	-624,29
1735,699	10,58
1736,736	778,57
1737,775	-695,97
1738,814	-577,19
1739,853	33,11
1740,894	223,57
1741,934	-493,22
1742,976	-661,15
1744,018	569,68
1745,061	352,59
1746,104	-685,73
1747,148	-720,54
1748,193	340,3
1749,238	280,91
1750,284	-568,99
1751,33	-777,89
1752,377	473,42
1753,425	1057,09
1754,473	-603,81
1755,522	-626,34
1756,572	784,71
1757,622	526,67
1758,673	-767,65
1759,724	-628,39
1760,776	670,03
1761,829	846,15
1762,882	-253,61
1763,936	-794,27
1764,991	102,74
1766,046	1012,04
1767,102	-413,35
1768,158	-900,76
1769,215	532,81
1770,273	608,59
1771,331	-503,46
1772,39	-759,46
1773,45	422,22
1774,51	491,85
1775,571	-759,46
1776,632	-40,62
1777,694	303,44
1778,757	512,33
1779,82	-411,3
1780,884	-593,57
1781,949	229,71
1783,014	565,58
1784,08	-859,81
1785,147	-693,92
1786,214	166,23
1787,282	82,26
1788,35	-411,3
1789,419	-423,59
1790,489	745,8
1791,559	452,94
1792,63	-691,87
1793,702	-351,91
1794,774	139,6
1795,847	579,92
1796,92	-335,53
1797,994	-419,49
1799,069	559,44
1800,144	1173,83
1801,22	-683,68
1802,297	-368,29
1803,374	61,78
1804,452	536,91
1805,531	-702,11
1806,61	-401,06
1807,69	567,63
1808,77	-81,58
1809,851	-540,32
1810,933	-906,91
1812,015	614,73
1813,098	133,46
1814,182	-638,62
1815,266	-507,55
1816,351	321,87
1817,437	454,99
1818,523	-423,59
1819,61	-519,84
1820,697	452,94
1821,785	1147,2
1822,874	-456,36
1823,963	-663,2
1825,053	344,4
1826,144	512,33
1827,235	-564,9
1828,327	-599,71
1829,42	319,82
1830,513	-9,9
1831,607	-695,97
1832,701	-642,72
1833,796	346,45
1834,892	737,61
1835,989	-835,23
1837,086	-757,41
1838,183	389,46
1839,282	315,73
1840,381	-648,86
1841,48	-605,86
1842,581	379,22
1843,682	856,39
1844,783	-274,09
1845,885	-376,48
1846,988	659,79
1848,092	477,52
1849,196	-478,88
1850,301	-439,97
1851,406	37,2
1852,512	1059,14
1853,619	-513,7
1854,726	-704,16
1855,834	37,2
1856,943	756,04
1858,052	-669,34
1859,162	-573,09
1860,273	493,9
1861,384	770,38
1862,496	-521,89
1863,608	-700,06
1864,721	508,24
1865,835	82,26
1866,95	-642,72
1868,065	-579,23
1869,181	147,8
1870,297	600,4
1871,414	-360,1
1872,532	-812,7
1873,65	90,45
1874,769	293,2
1875,889	-657,06
1877,009	-335,53
1878,13	614,73
1879,252	729,42
1880,374	-480,93
1881,497	-677,54
1882,62	323,92
1883,745	295,25
1884,87	-925,34
1885,995	-863,9
1887,121	282,96
1888,248	108,88
1889,376	-765,6
1890,504	-652,96
1891,632	506,19
1892,762	297,3
1893,892	-743,07
1895,023	-405,16
1896,154	143,7
1897,286	299,34
1898,419	-712,35
1899,552	-546,47
1900,686	567,63
1901,821	547,15
1902,956	-663,2
1904,092	-566,95
1905,229	895,3
1906,366	541,01
1907,504	-532,13
1908,643	-687,78
1909,782	622,92
