Data from FLMT021711__2__17-53-32-262.txt Node

Date: Tue Nov 05 17:53:32 CET 2024
User: Etudiants TP
Spectrometer: FLMT02171
Trigger mode: 0
Integration Time (sec): 1,000000E-1
Scans to average: 5
Electric dark correction enabled: true
Nonlinearity correction enabled: false
Boxcar width: 15
XAxis mode: Wavelengths
Number of Pixels in Spectrum: 3648
>>>>>Begin Spectral Data<<<<<
194,658	-57,41
194,923	-55,66
195,188	-48,54
195,453	-47,06
195,717	-43,67
195,982	-42,93
196,247	-41,61
196,512	-43,65
196,777	-42,26
197,042	-40,29
197,307	-40,12
197,572	-34,99
197,837	-35,24
198,101	-32,21
198,366	-29,86
198,631	-27,97
198,896	-22,8
199,161	-16,25
199,425	-9,03
199,69	0,08
199,955	-0,65
200,22	-2,57
200,484	-2,81
200,749	-1,86
201,014	0,18
201,278	-0,33
201,543	0,79
201,807	0,36
202,072	2,19
202,337	1,99
202,601	1,05
202,866	0,01
203,13	2,44
203,395	0,2
203,659	-1,35
203,924	-2,4
204,189	-0,37
204,453	1,27
204,717	3,15
204,982	5
205,246	6,35
205,511	8,98
205,775	7,04
206,04	12,47
206,304	13,16
206,568	15,23
206,833	14,92
207,097	16,57
207,361	16,85
207,626	20,56
207,89	21,41
208,154	22,94
208,419	24,9
208,683	24,87
208,947	27,01
209,211	25,94
209,476	25,2
209,74	25,68
210,004	26,61
210,268	27,51
210,532	31,05
210,796	32,01
211,061	32,23
211,325	31,71
211,589	31,57
211,853	33,63
212,117	34,84
212,381	33,91
212,645	34,84
212,909	35,8
213,173	32,32
213,437	32,75
213,701	32,49
213,965	33,82
214,229	29,6
214,493	29,57
214,757	28,33
215,021	28,64
215,285	31,64
215,549	34,39
215,813	30,49
216,077	31,63
216,34	33,07
216,604	32,13
216,868	33,27
217,132	33,71
217,396	33,43
217,659	34,71
217,923	30,33
218,187	29,9
218,451	28,5
218,714	25,49
218,978	25,94
219,242	28,68
219,505	28,68
219,769	29,67
220,033	29,43
220,296	29,98
220,56	30,79
220,824	27,84
221,087	27,61
221,351	28,85
221,614	28,25
221,878	30,03
222,142	29,42
222,405	30,08
222,669	31,44
222,932	27,79
223,196	25,78
223,459	22,86
223,722	23,7
223,986	23,1
224,249	21,16
224,513	21,92
224,776	21,51
225,04	20,56
225,303	19,77
225,566	19,34
225,83	20,03
226,093	23,36
226,356	23,11
226,62	21,03
226,883	22,84
227,146	22,83
227,409	21,02
227,673	19,21
227,936	17,5
228,199	17,55
228,462	15,83
228,725	14,25
228,989	14,16
229,252	16,11
229,515	21,24
229,778	19,31
230,041	17,1
230,304	14,06
230,567	14,23
230,83	12
231,093	14,41
231,356	14
231,619	19,08
231,882	17,68
232,145	19,49
232,408	17,98
232,671	17,6
232,934	16,64
233,197	16,05
233,46	14,94
233,723	16,62
233,986	15,97
234,249	13,57
234,512	15,1
234,775	18,78
235,037	16,65
235,3	15,9
235,563	17
235,826	17,42
236,089	19,38
236,351	18,97
236,614	21,25
236,877	22,45
237,14	24,73
237,402	23,57
237,665	16,68
237,928	15,8
238,19	14,04
238,453	19,06
238,716	19,03
238,978	19,13
239,241	17,9
239,503	20,09
239,766	16,28
240,029	16,28
240,291	18,44
240,554	18,05
240,816	15,9
241,079	17,41
241,341	17,66
241,604	17,4
241,866	14,94
242,129	15,86
242,391	18,88
242,653	17,83
242,916	18,81
243,178	18,92
243,441	21,7
243,703	19,56
243,965	19,29
244,228	18,35
244,49	18,67
244,752	20,81
245,015	23,03
245,277	25,11
245,539	24,09
245,801	26,2
246,064	26,65
246,326	26,01
246,588	22,07
246,85	23,27
247,112	22,86
247,374	24,82
247,637	27,87
247,899	27,25
248,161	25,78
248,423	22,2
248,685	23,99
248,947	24,41
249,209	23,85
249,471	24,7
249,733	25,16
249,995	22,17
250,257	21,42
250,519	18,54
250,781	21,92
251,043	17,66
251,305	20,47
251,567	20,5
251,829	21,47
252,091	20,39
252,353	18,74
252,615	19,15
252,876	16,26
253,138	12,45
253,4	8,58
253,662	10,11
253,924	11,55
254,185	12,36
254,447	13,84
254,709	15,6
254,971	15,51
255,232	17,27
255,494	16,04
255,756	12,67
256,017	14,48
256,279	15,23
256,541	15,59
256,802	14,22
257,064	15,82
257,326	15,38
257,587	16,62
257,849	17,7
258,11	22,61
258,372	24,01
258,633	25,12
258,895	23,26
259,156	23,78
259,418	20,74
259,679	17,01
259,941	15,43
260,202	18,98
260,464	20,02
260,725	19,07
260,987	18,27
261,248	19,15
261,509	20,48
261,771	18,45
262,032	19,47
262,293	19,3
262,555	17,88
262,816	15,47
263,077	14,34
263,338	12,12
263,6	12,24
263,861	12,66
264,122	10,45
264,383	12,49
264,645	13,79
264,906	13,94
265,167	13,04
265,428	11,87
265,689	12,24
265,95	9,61
266,211	9,93
266,473	8,71
266,734	5,75
266,995	1,86
267,256	2,11
267,517	4,72
267,778	8,48
268,039	10,32
268,3	8,43
268,561	7,43
268,822	10,25
269,083	7,61
269,344	5,72
269,604	3,78
269,865	4,43
270,126	1,35
270,387	2,76
270,648	4,69
270,909	4,74
271,17	3,51
271,43	1,75
271,691	-0,42
271,952	-2
272,213	-1,39
272,473	-4,5
272,734	-2,91
272,995	-1,85
273,256	-0,51
273,516	2,65
273,777	1,62
274,038	4,02
274,298	0,07
274,559	-0,65
274,82	4,49
275,08	7,81
275,341	10,14
275,601	9,08
275,862	6,01
276,122	6,66
276,383	6,79
276,643	8,04
276,904	7,95
277,164	11,4
277,425	12,24
277,685	17,14
277,946	17,68
278,206	19,25
278,467	21,91
278,727	21,91
278,987	21,33
279,248	21,58
279,508	22,79
279,768	25,78
280,029	27,35
280,289	26,68
280,549	26,05
280,81	25,25
281,07	24,16
281,33	24,95
281,59	22,77
281,851	23,71
282,111	23,51
282,371	24,33
282,631	25,99
282,891	24,51
283,151	23,52
283,412	20,65
283,672	20,3
283,932	20,84
284,192	20,43
284,452	18,12
284,712	15,59
284,972	12,79
285,232	10,4
285,492	12,36
285,752	9,5
286,012	15,97
286,272	17,42
286,532	14
286,792	14,58
287,052	17,05
287,312	17,77
287,571	16,88
287,831	16,24
288,091	14,86
288,351	14,07
288,611	18,11
288,871	17,06
289,13	17,24
289,39	13,57
289,65	14,49
289,91	13,19
290,17	15,42
290,429	17,49
290,689	15,82
290,949	13,71
291,208	14,83
291,468	18,76
291,728	20,07
291,987	21,96
292,247	22,01
292,506	25,96
292,766	29,74
293,026	29,02
293,285	30,76
293,545	32,82
293,804	31,69
294,064	26,97
294,323	23,86
294,583	23,37
294,842	22,01
295,102	22,84
295,361	22,11
295,621	23,48
295,88	23,88
296,139	23,43
296,399	25,03
296,658	21,1
296,917	21,25
297,177	19,48
297,436	20,79
297,695	19,55
297,955	20,05
298,214	18,86
298,473	20,59
298,732	21,46
298,992	23,96
299,251	22,31
299,51	18,78
299,769	20,17
300,028	20
300,287	19,81
300,547	20,07
300,806	17,58
301,065	20,78
301,324	21,83
301,583	18,53
301,842	15,74
302,101	13,58
302,36	14,75
302,619	15,79
302,878	16,73
303,137	12,7
303,396	14,56
303,655	15,91
303,914	13,85
304,173	13,05
304,432	11,87
304,691	14,47
304,95	11,76
305,208	15,23
305,467	15,48
305,726	15,16
305,985	17,16
306,244	17,48
306,503	15,81
306,761	15
307,02	11,58
307,279	13,19
307,537	13,54
307,796	9,46
308,055	6,6
308,314	8,37
308,572	6,35
308,831	8,42
309,09	9,6
309,348	11,26
309,607	9,84
309,865	14,87
310,124	14,01
310,382	15,47
310,641	16,06
310,9	15,19
311,158	17,44
311,417	16,56
311,675	15,65
311,933	17,44
312,192	18,64
312,45	18,81
312,709	18,81
312,967	19,41
313,226	19,04
313,484	18,04
313,742	16,83
314,001	14,4
314,259	13,13
314,517	13,9
314,776	15,73
315,034	19,79
315,292	17,66
315,55	15,52
315,809	15,08
316,067	17,01
316,325	14,49
316,583	15,86
316,841	13,78
317,1	11,63
317,358	7,79
317,616	7,42
317,874	5,58
318,132	5,8
318,39	5,12
318,648	3,14
318,906	3,75
319,164	3
319,422	3,73
319,68	2,66
319,938	2,76
320,196	3,29
320,454	3,55
320,712	2,63
320,97	2,64
321,228	0,37
321,486	3,15
321,744	4,4
322,002	5,3
322,26	3,54
322,517	3,93
322,775	1,66
323,033	-0,79
323,291	0,56
323,549	3,32
323,806	4,77
324,064	4,44
324,322	5,43
324,58	3,2
324,837	6,41
325,095	4,2
325,353	5,43
325,61	8,03
325,868	8,31
326,126	10,29
326,383	10,19
326,641	9,74
326,898	9,94
327,156	10,81
327,413	10,48
327,671	11,22
327,928	11,51
328,186	12,47
328,443	11,69
328,701	15,59
328,958	17,03
329,216	18,22
329,473	16,57
329,731	17,43
329,988	18,46
330,245	20,03
330,503	21,47
330,76	20,93
331,017	23,09
331,275	21,57
331,532	20,94
331,789	20,02
332,047	19,9
332,304	17,17
332,561	18,79
332,818	15,62
333,076	18,26
333,333	20,51
333,59	22,56
333,847	22,37
334,104	21,4
334,361	20,65
334,618	20,15
334,876	19,42
335,133	19,67
335,39	17,86
335,647	19,67
335,904	17,69
336,161	15,14
336,418	17,8
336,675	12,92
336,932	13,38
337,189	12,18
337,446	12,52
337,703	10,74
337,96	6,55
338,216	7,52
338,473	3,82
338,73	4,57
338,987	3,95
339,244	6,95
339,501	5,22
339,757	6,23
340,014	6,94
340,271	8,97
340,528	8,36
340,785	13,18
341,041	13,32
341,298	9,86
341,555	8,17
341,811	8,96
342,068	7,97
342,325	8,16
342,581	10,36
342,838	11,25
343,094	10,41
343,351	11,46
343,608	8,43
343,864	9,91
344,121	12,15
344,377	10,26
344,634	9,83
344,89	9,58
345,147	10,02
345,403	7,9
345,66	9,8
345,916	12,36
346,172	10,25
346,429	9,76
346,685	8,54
346,942	9,92
347,198	5,65
347,454	7,12
347,711	6,05
347,967	3,67
348,223	4,59
348,48	3,32
348,736	6,3
348,992	4,98
349,248	7,31
349,504	7,22
349,761	6,02
350,017	5,5
350,273	5,57
350,529	5,26
350,785	4,96
351,041	4,25
351,297	4,16
351,554	2,97
351,81	1,39
352,066	-0,89
352,322	-0,73
352,578	1,59
352,834	0,3
353,09	0,12
353,346	1,01
353,602	-2,19
353,858	-2,92
354,114	-2,53
354,369	-1
354,625	1,36
354,881	-2,55
355,137	-0,48
355,393	0,33
355,649	0,99
355,905	2,03
356,16	1,13
356,416	2,8
356,672	-5,09
356,928	-4,09
357,183	-3,97
357,439	-5,06
357,695	-6,32
357,951	-2,3
358,206	-3,56
358,462	-4,47
358,718	-7,05
358,973	-7,05
359,229	-5,69
359,484	-5,29
359,74	-1,42
359,996	-0,11
360,251	2,47
360,507	0,7
360,762	0,11
361,018	1,84
361,273	0,37
361,529	2,6
361,784	2,64
362,04	3,16
362,295	2,52
362,55	2,09
362,806	6,33
363,061	7,73
363,316	7,93
363,572	8,85
363,827	10,08
364,082	8,49
364,338	8,89
364,593	10,21
364,848	10,96
365,104	9,27
365,359	13,16
365,614	14,74
365,869	12,78
366,124	13,11
366,38	12,7
366,635	15,47
366,89	18,13
367,145	17,46
367,4	20,6
367,655	20,15
367,91	19,9
368,165	17,75
368,42	15,36
368,675	16,8
368,93	18,62
369,185	17,29
369,44	17,54
369,695	18,89
369,95	18,47
370,205	17,89
370,46	17,83
370,715	16,74
370,97	16,66
371,225	15,95
371,48	17,55
371,734	18,7
371,989	20,11
372,244	20,16
372,499	21,49
372,754	20,62
373,008	18,27
373,263	14,23
373,518	16,84
373,773	15,45
374,027	15,17
374,282	17,98
374,537	17,68
374,791	18,2
375,046	16,67
375,301	16,33
375,555	13,64
375,81	16,59
376,064	17,87
376,319	21,3
376,573	20,91
376,828	16,81
377,082	21,04
377,337	19,41
377,591	15,83
377,846	16,35
378,1	19,19
378,355	18,97
378,609	17,48
378,863	15,54
379,118	17,28
379,372	15,28
379,627	12,04
379,881	8,9
380,135	7,99
380,389	7,37
380,644	7,55
380,898	9,17
381,152	9,85
381,407	8,88
381,661	11,72
381,915	13,7
382,169	12,76
382,423	12,8
382,677	9,06
382,932	9,96
383,186	10,72
383,44	11,9
383,694	12,86
383,948	9,78
384,202	8,92
384,456	10,21
384,71	11,68
384,964	10,06
385,218	11,68
385,472	13,11
385,726	12,82
385,98	12,09
386,234	12,18
386,488	9,63
386,742	9,89
386,996	8,02
387,249	8,63
387,503	10,83
387,757	13,09
388,011	14,73
388,265	16,08
388,518	17,09
388,772	19,25
389,026	20,19
389,28	17,85
389,533	15,94
389,787	17,75
390,041	15,31
390,295	14,84
390,548	15,53
390,802	18,6
391,055	17,83
391,309	17,06
391,563	14,61
391,816	16,26
392,07	15
392,323	16,45
392,577	16,74
392,83	17,32
393,084	22,14
393,337	26,11
393,591	27,48
393,844	27,56
394,098	31,4
394,351	36,47
394,604	38,84
394,858	39,97
395,111	41,14
395,364	39,26
395,618	40,45
395,871	37,89
396,124	36,43
396,378	34,84
396,631	32,9
396,884	30,35
397,137	29,91
397,391	30,72
397,644	26,29
397,897	27,01
398,15	28,12
398,403	31,62
398,657	29,29
398,91	27,4
399,163	27,51
399,416	26,96
399,669	24,89
399,922	25,4
400,175	22,88
400,428	21,46
400,681	22,57
400,934	19,01
401,187	16,86
401,44	16,31
401,693	14,7
401,946	10,13
402,199	4,31
402,452	2,59
402,704	-0,59
402,957	-2,81
403,21	-0,47
403,463	-1,05
403,716	-0,35
403,969	0,98
404,221	0,98
404,474	3,52
404,727	6,34
404,98	8,25
405,232	8,14
405,485	10,26
405,738	12,78
405,99	12,43
406,243	11,83
406,496	14,02
406,748	13,48
407,001	12,45
407,253	12,16
407,506	12,84
407,759	12,56
408,011	10,69
408,264	12,71
408,516	11,93
408,769	9,41
409,021	12,26
409,274	11,65
409,526	12,76
409,778	12,43
410,031	16,45
410,283	16,72
410,536	21,71
410,788	21,2
411,04	20
411,293	21,29
411,545	22,72
411,797	21,73
412,049	22,06
412,302	23,11
412,554	23,74
412,806	23,11
413,058	22,18
413,311	23,26
413,563	22,4
413,815	22,18
414,067	20,63
414,319	18,83
414,571	21,15
414,823	19,76
415,075	18,84
415,328	20,44
415,58	24,07
415,832	25,18
416,084	24,59
416,336	23,57
416,588	28,14
416,84	23,97
417,091	27,45
417,343	26,12
417,595	29,03
417,847	29,82
418,099	31,47
418,351	31,28
418,603	35,36
418,855	35,74
419,106	36,05
419,358	35,11
419,61	35,27
419,862	35,17
420,114	32,14
420,365	31,62
420,617	31,44
420,869	29,9
421,12	29,02
421,372	30,27
421,624	28,5
421,875	28,37
422,127	26,31
422,379	26,3
422,63	29,88
422,882	29,58
423,133	29,31
423,385	28,11
423,636	29,9
423,888	32,09
424,139	34,12
424,391	31,07
424,642	30,5
424,894	27,92
425,145	27,54
425,396	24,57
425,648	26,68
425,899	23,74
426,151	23,05
426,402	20,56
426,653	20,54
426,905	18,9
427,156	16,63
427,407	16,59
427,658	16,51
427,91	16,38
428,161	15,87
428,412	17,52
428,663	18,66
428,914	20,11
429,166	20
429,417	21,54
429,668	20,15
429,919	18,89
430,17	18,43
430,421	17,87
430,672	21,74
430,923	22,65
431,174	22,02
431,425	21,56
431,676	21,45
431,927	19,56
432,178	22,14
432,429	23,34
432,68	21,92
432,931	25,8
433,182	27,95
433,433	24,68
433,683	26,63
433,934	26,73
434,185	24,75
434,436	24,42
434,687	26,53
434,937	30,18
435,188	29,45
435,439	29,19
435,69	30,06
435,94	30,46
436,191	31,49
436,442	31,98
436,692	31,55
436,943	29,25
437,194	28,51
437,444	31,13
437,695	35,1
437,945	35,56
438,196	34,4
438,447	32,92
438,697	32,69
438,948	31,58
439,198	30,15
439,449	26,65
439,699	27,65
439,949	26,53
440,2	26,11
440,45	29,39
440,701	26,83
440,951	27,73
441,201	30,31
441,452	28,6
441,702	27,42
441,952	29,77
442,203	29,37
442,453	27,42
442,703	27,95
442,953	28,29
443,204	29,02
443,454	27,52
443,704	28,45
443,954	24,92
444,204	25,64
444,455	26,05
444,705	28,09
444,955	28,51
445,205	29,25
445,455	27,78
445,705	28,76
445,955	29,25
446,205	29,88
446,455	29,97
446,705	31,66
446,955	32,67
447,205	36,75
447,455	38,86
447,705	38,12
447,955	37,4
448,205	37,18
448,454	37,34
448,704	39,52
448,954	38,3
449,204	40,34
449,454	42,08
449,704	41,18
449,953	42,69
450,203	45,07
450,453	42,3
450,703	44,45
450,952	45,04
451,202	46,93
451,452	46,84
451,701	51,12
451,951	55,67
452,201	55,74
452,45	56,44
452,7	59,03
452,949	58,35
453,199	58,1
453,448	60,92
453,698	62,79
453,947	61,47
454,197	62,03
454,446	61,69
454,696	65,86
454,945	64,86
455,195	63,67
455,444	64,92
455,693	69,28
455,943	67,67
456,192	69,09
456,442	67,87
456,691	67,24
456,94	67,51
457,189	66,41
457,439	68,57
457,688	69,97
457,937	69,65
458,186	70,74
458,436	71,54
458,685	74,11
458,934	73,91
459,183	72,99
459,432	75,81
459,681	75,03
459,93	74,32
460,179	73,49
460,429	72,54
460,678	75,95
460,927	79,55
461,176	76,31
461,425	76,4
461,674	79,57
461,923	79,68
462,172	80,03
462,42	77,52
462,669	78,96
462,918	78,18
463,167	77,86
463,416	76,03
463,665	77,36
463,914	77,02
464,162	75,9
464,411	76,71
464,66	77,42
464,909	75,69
465,158	76,74
465,406	76,99
465,655	79,07
465,904	81,59
466,152	81,21
466,401	79,68
466,65	80,59
466,898	79,24
467,147	73,72
467,395	71,57
467,644	74,21
467,893	73,64
468,141	73,49
468,39	70,48
468,638	67,29
468,887	64,97
469,135	65,17
469,384	64,58
469,632	64,79
469,88	62,97
470,129	63,8
470,377	60,15
470,626	63,5
470,874	64,46
471,122	65,45
471,371	64,11
471,619	63,05
471,867	65,62
472,115	65,29
472,364	63,88
472,612	67,26
472,86	66,51
473,108	66,17
473,356	64,32
473,605	63,11
473,853	60,31
474,101	58,89
474,349	58,23
474,597	60,71
474,845	59,98
475,093	59,37
475,341	56,66
475,589	57,44
475,837	57,06
476,085	58,55
476,333	58,25
476,581	60,39
476,829	57,9
477,077	59,56
477,325	59,59
477,573	62,52
477,821	61,17
478,069	62,71
478,317	61,57
478,564	64
478,812	61,09
479,06	60,02
479,308	59,33
479,555	57,58
479,803	56,92
480,051	57,98
480,299	56,69
480,546	56,12
480,794	53,38
481,042	54,86
481,289	54,91
481,537	56,42
481,784	56,59
482,032	58,4
482,28	58,48
482,527	58,63
482,775	58,77
483,022	59,17
483,27	60,39
483,517	64,6
483,765	62,95
484,012	63,08
484,259	61,92
484,507	65,43
484,754	66,1
485,002	65,21
485,249	63,45
485,496	66,26
485,744	64,5
485,991	63,65
486,238	60,76
486,486	64,58
486,733	65,88
486,98	69,75
487,227	69,25
487,474	70,96
487,722	73,38
487,969	72,27
488,216	71,58
488,463	72,53
488,71	70,66
488,957	68,64
489,204	69,28
489,451	70,03
489,699	70,74
489,946	68,14
490,193	68,41
490,44	69,57
490,687	69,84
490,934	68,65
491,18	63,77
491,427	65,53
491,674	67,97
491,921	69,02
492,168	68,68
492,415	65,66
492,662	67,94
492,909	70,81
493,155	69,54
493,402	69,54
493,649	68,12
493,896	69,77
494,142	66,75
494,389	66,14
494,636	65,11
494,883	63,54
495,129	62,72
495,376	60,67
495,623	62,3
495,869	64,44
496,116	66,84
496,362	67,67
496,609	71,27
496,855	76,02
497,102	75,98
497,348	74,83
497,595	76,69
497,841	80,96
498,088	78,54
498,334	79,99
498,581	78,98
498,827	80,19
499,074	81,59
499,32	82,45
499,566	86,36
499,813	85,88
500,059	85,71
500,305	86,12
500,552	84,74
500,798	83,99
501,044	87,94
501,29	88,04
501,537	85,27
501,783	88,34
502,029	92,05
502,275	89,14
502,521	88,51
502,767	88,99
503,013	92,66
503,26	91,12
503,506	88,04
503,752	89,05
503,998	88,98
504,244	90,69
504,49	86,98
504,736	89,25
504,982	89,34
505,228	91,15
505,474	90,98
505,72	93,33
505,966	92,51
506,211	95,76
506,457	97,31
506,703	93,81
506,949	92,08
507,195	89,07
507,441	86,8
507,686	88,45
507,932	87,62
508,178	90,26
508,424	88,98
508,669	87,35
508,915	87,91
509,161	91,43
509,406	93,12
509,652	92,93
509,898	97,17
510,143	99,67
510,389	99,69
510,634	95,97
510,88	98,94
511,125	102,46
511,371	102,68
511,616	104,27
511,862	101,08
512,107	99,91
512,353	99,64
512,598	100,78
512,844	99,72
513,089	97,94
513,335	99,15
513,58	98,79
513,825	99,35
514,071	97,73
514,316	99
514,561	100,74
514,806	101,67
515,052	104,67
515,297	104,29
515,542	106,34
515,787	107,13
516,033	110,38
516,278	111,29
516,523	110,37
516,768	109,42
517,013	106,77
517,258	107,12
517,503	107,2
517,748	107,7
517,993	107,3
518,238	108,08
518,483	106,76
518,728	104,61
518,973	103,7
519,218	103,25
519,463	104,43
519,708	105,56
519,953	104,12
520,198	102,73
520,443	104,13
520,688	106,69
520,933	105,55
521,177	105,05
521,422	102,55
521,667	106,01
521,912	106,89
522,157	103,65
522,401	106,73
522,646	107,08
522,891	109,09
523,135	108,77
523,38	108,7
523,625	108,11
523,869	109,96
524,114	113,23
524,358	112,88
524,603	112,8
524,848	110,69
525,092	108,43
525,337	110,39
525,581	112,69
525,826	115,74
526,07	116,57
526,315	119,8
526,559	119,15
526,803	117,69
527,048	120,59
527,292	121,3
527,537	121,64
527,781	122,12
528,025	120,14
528,269	121,88
528,514	123,46
528,758	124,12
529,002	125,67
529,247	128,97
529,491	128,53
529,735	134,24
529,979	133,38
530,223	134,95
530,467	131,59
530,712	129,67
530,956	128,77
531,2	129,66
531,444	128,1
531,688	129,6
531,932	129,89
532,176	132,2
532,42	133,89
532,664	136,06
532,908	134,33
533,152	133,13
533,396	131,35
533,64	131,29
533,884	127,89
534,128	127,89
534,371	129,94
534,615	132,02
534,859	130,05
535,103	129,94
535,347	131,97
535,59	133,53
535,834	129,63
536,078	130,34
536,322	131,94
536,565	134,33
536,809	131,64
537,053	133,7
537,296	131,05
537,54	129,8
537,784	129,44
538,027	132,23
538,271	132,51
538,514	130,12
538,758	129,91
539,001	128,9
539,245	127,81
539,488	128,59
539,732	129,49
539,975	131,23
540,219	133,67
540,462	134,41
540,706	135,64
540,949	135,48
541,192	136,77
541,436	143,3
541,679	147,17
541,922	147,41
542,166	142,82
542,409	144,08
542,652	145,75
542,895	145,7
543,139	147,19
543,382	152,01
543,625	151,75
543,868	151,22
544,111	149,22
544,354	148,86
544,598	147,4
544,841	148,53
545,084	149,39
545,327	147,4
545,57	148,95
545,813	151,53
546,056	152,81
546,299	153,3
546,542	155,19
546,785	157,64
547,028	158,84
547,271	157,6
547,514	155,35
547,756	152,48
547,999	152,05
548,242	154,02
548,485	153,75
548,728	154,41
548,971	149,58
549,213	150,97
549,456	151,14
549,699	152,06
549,942	152,26
550,184	151,82
550,427	151,96
550,67	151,79
550,912	147,68
551,155	149,17
551,398	149,1
551,64	148,45
551,883	148,46
552,125	146,82
552,368	147,16
552,61	145,35
552,853	147,87
553,095	145,95
553,338	145,24
553,58	145,5
553,823	144,39
554,065	147,43
554,308	143,8
554,55	141,44
554,792	139,92
555,035	139,92
555,277	139,52
555,519	140,5
555,762	139,04
556,004	138,8
556,246	135,72
556,488	137,35
556,731	133,98
556,973	134,84
557,215	132,99
557,457	134,38
557,699	136,2
557,941	133,27
558,183	132,77
558,426	135,87
558,668	132,53
558,91	135,31
559,152	136,49
559,394	136,31
559,636	140,47
559,878	141,93
560,12	141,85
560,362	144,33
560,604	144,24
560,845	144,15
561,087	143,73
561,329	146,29
561,571	143,35
561,813	144,87
562,055	145,18
562,297	147,28
562,538	148,7
562,78	150,89
563,022	149,19
563,264	149,64
563,505	151,95
563,747	153,07
563,989	151,26
564,23	152,34
564,472	152,16
564,714	155,82
564,955	156,11
565,197	152,59
565,438	156,77
565,68	160,58
565,921	159,3
566,163	163,27
566,404	160,96
566,646	163,84
566,887	166,53
567,129	168,18
567,37	167,7
567,612	169,46
567,853	166,84
568,094	168,32
568,336	168,69
568,577	171,53
568,818	172,32
569,06	171,01
569,301	170,83
569,542	171,46
569,783	173,15
570,025	174,27
570,266	176,26
570,507	178,72
570,748	179,35
570,989	180,4
571,23	182,89
571,472	184,41
571,713	183,11
571,954	183,62
572,195	182,97
572,436	185,23
572,677	189,93
572,918	190,63
573,159	189,41
573,4	187,28
573,641	187,16
573,882	188,75
574,123	187,16
574,364	183,03
574,604	182,29
574,845	180,16
575,086	181,4
575,327	181,66
575,568	182,47
575,809	182,52
576,049	181,8
576,29	179,64
576,531	185,11
576,771	187,94
577,012	190,13
577,253	190,28
577,494	188,96
577,734	188,65
577,975	189,1
578,215	190,06
578,456	187,12
578,697	187,88
578,937	189,93
579,178	190,03
579,418	189,91
579,659	189,14
579,899	186,17
580,14	186,43
580,38	185,84
580,62	185,37
580,861	190,64
581,101	189,27
581,342	188,77
581,582	185,48
581,822	187,85
582,063	187,31
582,303	189,93
582,543	189,52
582,783	191,64
583,024	193,62
583,264	196,64
583,504	195,6
583,744	197,94
583,984	195,98
584,224	195,03
584,465	193,89
584,705	194,14
584,945	195,51
585,185	194,27
585,425	195,72
585,665	194,66
585,905	194,66
586,145	194,78
586,385	193,25
586,625	196,24
586,865	195,26
587,105	196,52
587,345	199,34
587,585	198,89
587,824	198,86
588,064	200,26
588,304	197,52
588,544	199,25
588,784	198,38
589,024	201,37
589,263	201,1
589,503	200,85
589,743	203,31
589,982	202,78
590,222	203,11
590,462	201,73
590,701	200,39
590,941	202,53
591,181	201,98
591,42	201,38
591,66	205,8
591,899	210,49
592,139	210,08
592,378	211,02
592,618	212,32
592,857	211,58
593,097	213,04
593,336	214,07
593,576	213,55
593,815	216,49
594,055	216,87
594,294	219,4
594,533	219,21
594,773	217,05
595,012	219,4
595,251	220,93
595,491	222,86
595,73	225,81
595,969	226,16
596,208	227,81
596,447	231,62
596,687	233,49
596,926	234,51
597,165	230,54
597,404	233,26
597,643	232,49
597,882	230,9
598,121	232,38
598,36	233,42
598,599	235,8
598,838	236,17
599,077	232,02
599,316	231,84
599,555	231,88
599,794	232,05
600,033	233
600,272	235,27
600,511	234,74
600,75	238,21
600,989	240,38
601,228	238,66
601,466	237,88
601,705	238,52
601,944	239,41
602,183	241,76
602,422	240,36
602,66	237,69
602,899	237,48
603,138	238,18
603,376	237,37
603,615	239,2
603,854	237,54
604,092	237,43
604,331	237,28
604,569	238,32
604,808	237,74
605,047	238,81
605,285	239,8
605,524	237,92
605,762	236,24
606	236,31
606,239	238,12
606,477	237,6
606,716	233,1
606,954	231,08
607,193	229,31
607,431	225,39
607,669	224,15
607,908	222,32
608,146	221,55
608,384	219,95
608,622	220,29
608,861	219,06
609,099	217,81
609,337	216,86
609,575	216,39
609,813	215,93
610,052	217,34
610,29	211,47
610,528	207,87
610,766	205,64
611,004	203,85
611,242	201,6
611,48	199,98
611,718	197,7
611,956	198,21
612,194	195,8
612,432	193,92
612,67	192,52
612,908	194,56
613,146	193,29
613,384	190,38
613,621	186,91
613,859	187,61
614,097	187,18
614,335	188,57
614,573	189,5
614,811	192,09
615,048	189,69
615,286	189,52
615,524	187,67
615,761	184,01
615,999	183,49
616,237	182,95
616,474	184,21
616,712	185,95
616,95	184,57
617,187	184,17
617,425	184,57
617,662	185,78
617,9	185,2
618,137	184,03
618,375	183,56
618,612	181,76
618,85	183,78
619,087	186,12
619,325	185,54
619,562	184,86
619,799	183,8
620,037	183,33
620,274	180,56
620,511	180,91
620,749	178,95
620,986	179,3
621,223	176,78
621,461	175,58
621,698	175,84
621,935	173,73
622,172	171,03
622,409	173,15
622,647	173,29
622,884	172,26
623,121	174,79
623,358	171,71
623,595	171,79
623,832	169,69
624,069	165,68
624,306	165,91
624,543	167,36
624,78	166,39
625,017	166,17
625,254	166,69
625,491	167,88
625,728	167,73
625,965	169,36
626,202	168,3
626,438	165,29
626,675	163,98
626,912	165,59
627,149	166,61
627,386	166,07
627,622	164,37
627,859	163,39
628,096	164,26
628,333	162,53
628,569	163,34
628,806	164,06
629,043	163,34
629,279	163,7
629,516	165,34
629,752	161,07
629,989	160,56
630,225	158,63
630,462	158,18
630,699	158,81
630,935	157,92
631,171	155,16
631,408	156,37
631,644	152,96
631,881	148,93
632,117	146,35
632,354	147
632,59	145,2
632,826	145,54
633,063	145,19
633,299	143,98
633,535	141,03
633,771	139,57
634,008	141,03
634,244	140,16
634,48	137,69
634,716	139,06
634,953	138,58
635,189	137,92
635,425	138,74
635,661	141,91
635,897	140,27
636,133	139,58
636,369	137,7
636,605	133,8
636,841	132,96
637,077	134,58
637,313	134,18
637,549	134,71
637,785	133,31
638,021	133,49
638,257	131,17
638,493	133,64
638,729	130,89
638,965	134,58
639,2	135,23
639,436	133,97
639,672	133,32
639,908	130,43
640,144	133,54
640,379	134,86
640,615	132,33
640,851	133,66
641,086	136,38
641,322	133,55
641,558	132,42
641,793	131,67
642,029	127,65
642,264	126,85
642,5	126,67
642,736	123,54
642,971	123,32
643,207	121,68
643,442	119,39
643,678	119,17
643,913	120,9
644,148	118,72
644,384	120,21
644,619	120,74
644,855	121,21
645,09	121,32
645,325	120,47
645,561	121,4
645,796	117,26
646,031	120,01
646,266	117,1
646,502	116,26
646,737	118,25
646,972	117,21
647,207	118,94
647,442	115,15
647,678	110,76
647,913	112,3
648,148	112,87
648,383	109,98
648,618	109,43
648,853	110,41
649,088	113,1
649,323	116,24
649,558	116,8
649,793	116,19
650,028	115,97
650,263	111,15
650,498	112,41
650,733	111,86
650,968	109,33
651,202	110,37
651,437	108,23
651,672	103,7
651,907	101,31
652,142	100,65
652,376	100,73
652,611	102,19
652,846	102,46
653,081	103,96
653,315	101,33
653,55	100,5
653,785	98,86
654,019	100,32
654,254	97,73
654,488	97,43
654,723	92,85
654,958	91,9
655,192	91,84
655,427	88,22
655,661	88,56
655,896	91,7
656,13	92,29
656,364	88,05
656,599	84,16
656,833	85,93
657,068	88,36
657,302	88,4
657,536	87,4
657,771	87,53
658,005	88,34
658,239	89,38
658,474	86,39
658,708	88,69
658,942	88,8
659,176	86,88
659,41	84,75
659,645	83,36
659,879	81,8
660,113	77,76
660,347	75,8
660,581	74,02
660,815	73,96
661,049	74,14
661,283	69,93
661,517	68,73
661,751	67,7
661,985	67,99
662,219	68,62
662,453	65,83
662,687	65,93
662,921	64,07
663,155	62,99
663,389	55,65
663,622	53,5
663,856	55,65
664,09	53,34
664,324	50,81
664,558	50,68
664,791	49,79
665,025	49,27
665,259	48,9
665,492	48,56
665,726	50,56
665,96	48,96
666,193	47,71
666,427	48,8
666,661	48,37
666,894	45,85
667,128	43,57
667,361	46,65
667,595	46,24
667,828	45,21
668,062	43,85
668,295	42,07
668,529	42,46
668,762	44,03
668,995	42,5
669,229	45,7
669,462	45,12
669,695	45,9
669,929	44,48
670,162	44,71
670,395	41,34
670,629	44,43
670,862	46,07
671,095	42,94
671,328	42,91
671,561	40,31
671,795	40,66
672,028	41,9
672,261	42,77
672,494	44,48
672,727	43,03
672,96	44,24
673,193	43,94
673,426	47,15
673,659	46,03
673,892	45,95
674,125	45,64
674,358	46,58
674,591	45,05
674,824	44,28
675,057	44,26
675,29	42,94
675,523	45,67
675,755	45,35
675,988	44,62
676,221	47,49
676,454	44,64
676,687	46,64
676,919	46,63
677,152	46,85
677,385	45,59
677,617	45,82
677,85	47,24
678,083	47,79
678,315	50,09
678,548	46,81
678,78	45,89
679,013	44,44
679,246	44,62
679,478	44,08
679,711	42,2
679,943	43,85
680,175	40,67
680,408	43,19
680,64	39,11
680,873	40,51
681,105	40,5
681,338	43,86
681,57	41,28
681,802	42,68
682,034	43,4
682,267	46,87
682,499	49,29
682,731	44,89
682,964	42,84
683,196	40,82
683,428	39,75
683,66	38,62
683,892	40
684,124	42,06
684,356	44,71
684,589	45,46
684,821	44,48
685,053	42,79
685,285	42,41
685,517	43,89
685,749	45,17
685,981	46,86
686,213	48,22
686,445	48,94
686,676	46,11
686,908	47,05
687,14	44,72
687,372	45,93
687,604	42,94
687,836	44,14
688,068	44,12
688,299	43
688,531	40,23
688,763	44,54
688,995	42,45
689,226	44,64
689,458	41,79
689,69	38,98
689,921	38,15
690,153	38,49
690,384	40,13
690,616	36,9
690,848	39,09
691,079	37,09
691,311	33,28
691,542	30,55
691,774	28,94
692,005	31,64
692,237	33,68
692,468	31,97
692,699	30,22
692,931	30,15
693,162	27,9
693,393	25,33
693,625	22,6
693,856	24,29
694,087	23,09
694,319	24,91
694,55	23,61
694,781	23,1
695,012	22,62
695,243	19,5
695,475	19,38
695,706	19,59
695,937	19,42
696,168	18,64
696,399	15,77
696,63	14,82
696,861	15,66
697,092	20,71
697,323	23,6
697,554	25,61
697,785	27,4
698,016	28,05
698,247	25,9
698,478	28,28
698,709	29,45
698,94	31,14
699,171	30,81
699,401	28,28
699,632	30,23
699,863	26,82
700,094	27,22
700,325	31,48
700,555	33,72
700,786	35,3
701,017	34,22
701,247	33,27
701,478	33,17
701,709	32,52
701,939	30,53
702,17	33,61
702,401	37,4
702,631	37,82
702,862	36,37
703,092	33,03
703,323	35,68
703,553	37,31
703,784	37,77
704,014	37,75
704,244	32,65
704,475	30,31
704,705	27,82
704,936	27,59
705,166	27,08
705,396	28,31
705,627	27,51
705,857	27,51
706,087	27,6
706,317	24,27
706,548	21,63
706,778	20,11
707,008	21,24
707,238	20,76
707,468	17,2
707,698	14,43
707,928	14,32
708,158	13,25
708,389	13,74
708,619	12,23
708,849	12,07
709,079	14,15
709,309	11,13
709,539	7,87
709,768	8,14
709,998	11,27
710,228	9,92
710,458	9,07
710,688	6,34
710,918	6,76
711,148	6,14
711,378	7,46
711,607	6,31
711,837	8,1
712,067	8,32
712,297	6,73
712,526	7,31
712,756	8,68
712,986	5,57
713,215	3,49
713,445	4,49
713,674	6
713,904	5,71
714,134	8,98
714,363	9,42
714,593	8,51
714,822	8,08
715,052	7,29
715,281	9,92
715,511	8,93
715,74	8,91
715,969	7,61
716,199	6,21
716,428	6,05
716,657	5,86
716,887	7,7
717,116	4,75
717,345	8,06
717,575	7,88
717,804	8,32
718,033	7,26
718,262	6,81
718,492	7,77
718,721	10,58
718,95	9,66
719,179	7,07
719,408	8,57
719,637	4,36
719,866	2,16
720,095	3,82
720,324	4,7
720,553	0,64
720,782	-0,13
721,011	0,76
721,24	-2,12
721,469	-3,68
721,698	-2,3
721,927	-1,2
722,156	-2,21
722,385	-4,79
722,613	-3,06
722,842	-2,54
723,071	1,88
723,3	2,65
723,529	1,75
723,757	2,82
723,986	-0,46
724,215	-2,04
724,443	-1,36
724,672	0,04
724,901	2,6
725,129	4,27
725,358	7,26
725,586	4,72
725,815	4,1
726,043	4,11
726,272	3,46
726,5	2,46
726,729	5,53
726,957	1,3
727,186	0,06
727,414	-1,07
727,642	2,01
727,871	3,83
728,099	3,48
728,327	3,26
728,556	6,66
728,784	7,59
729,012	5,07
729,241	7,7
729,469	9,39
729,697	6,78
729,925	8,21
730,153	6,08
730,381	7,03
730,61	8,03
730,838	6,52
731,066	8,19
731,294	11,11
731,522	7,59
731,75	4,53
731,978	3,47
732,206	2,76
732,434	-0,51
732,662	2,81
732,89	0,44
733,118	-0,46
733,346	0,82
733,573	0,4
733,801	-0,56
734,029	6,67
734,257	8,07
734,485	13,24
734,712	15,21
734,94	13,76
735,168	16,69
735,396	17,19
735,623	13,84
735,851	13,92
736,078	17,69
736,306	17,92
736,534	16,97
736,761	19,24
736,989	16,84
737,216	15,8
737,444	13,55
737,671	13,01
737,899	17,7
738,126	16,32
738,354	15,68
738,581	17,09
738,809	16,82
739,036	13,47
739,263	13,25
739,491	13,05
739,718	10,96
739,945	15,46
740,173	16,41
740,4	15,71
740,627	13,94
740,854	14,53
741,081	11,69
741,309	9,41
741,536	4,78
741,763	1,95
741,99	3,11
742,217	2,2
742,444	3,13
742,671	5,37
742,898	5,58
743,125	1,23
743,352	-2,04
743,579	-2,99
743,806	-3,69
744,033	-1,4
744,26	-0,24
744,487	-0,04
744,714	0,81
744,941	-1,24
745,167	3,02
745,394	1,53
745,621	1,47
745,848	1,78
746,075	5,55
746,301	8,27
746,528	11,44
746,755	10,41
746,981	9,15
747,208	11,15
747,435	13,32
747,661	15,25
747,888	15,48
748,114	14,52
748,341	17,57
748,567	19,21
748,794	18
749,02	16,28
749,247	13,42
749,473	11,27
749,7	10,82
749,926	9,95
750,152	14,95
750,379	16,08
750,605	16,73
750,831	15,21
751,058	13,42
751,284	11,23
751,51	14,88
751,737	16,11
751,963	15,36
752,189	13,62
752,415	14,01
752,641	13,92
752,867	13,29
753,094	11,9
753,32	10,96
753,546	10,19
753,772	11,07
753,998	9,82
754,224	8,6
754,45	8,8
754,676	7,57
754,902	8,06
755,128	8,29
755,354	7,68
755,579	9,22
755,805	12,02
756,031	11,73
756,257	11,2
756,483	11,05
756,709	8,31
756,934	8,76
757,16	6,44
757,386	6,3
757,612	4,06
757,837	3,49
758,063	5,84
758,289	9
758,514	6,1
758,74	3,22
758,965	0,44
759,191	1,96
759,416	2,16
759,642	2,46
759,868	3,52
760,093	5,07
760,318	3,06
760,544	2,37
760,769	2,51
760,995	1,87
761,22	1,34
761,445	2,53
761,671	5,04
761,896	6,36
762,121	6,5
762,347	6,29
762,572	2,91
762,797	2,13
763,022	2,6
763,248	7,59
763,473	8,31
763,698	8,41
763,923	8,33
764,148	6,29
764,373	5,95
764,598	8,4
764,823	10,52
765,048	7,87
765,273	4,42
765,498	3,43
765,723	3,88
765,948	5,46
766,173	1,86
766,398	3,16
766,623	0,81
766,848	0,74
767,073	-1,65
767,298	-0,98
767,522	-0,76
767,747	-0,1
767,972	0,04
768,197	1,73
768,421	-0,82
768,646	-3,47
768,871	-7,41
769,095	-7,24
769,32	-5,82
769,545	-5,41
769,769	-3,49
769,994	-1,84
770,218	-5,28
770,443	-4,24
770,667	-2,8
770,892	-1,57
771,116	-0,72
771,341	0,98
771,565	-0,11
771,79	0,3
772,014	-0,85
772,238	-0,73
772,463	1,73
772,687	2,61
772,911	2,55
773,136	2,55
773,36	3,12
773,584	5,86
773,808	4,28
774,033	5,55
774,257	5,72
774,481	4,9
774,705	4,71
774,929	3,68
775,153	2,51
775,377	3,52
775,602	2,38
775,826	4,97
776,05	7,88
776,274	6,58
776,498	5,66
776,722	4,5
776,945	3,93
777,169	4,24
777,393	2,37
777,617	1,62
777,841	0,4
778,065	2,61
778,289	2,65
778,512	2,39
778,736	2,63
778,96	2,68
779,184	4,43
779,407	3,33
779,631	2,89
779,855	1,65
780,078	2,3
780,302	0,32
780,526	-2,94
780,749	-1,95
780,973	-0,45
781,196	-0,72
781,42	-2,62
781,643	-2,48
781,867	-1,77
782,09	-5,32
782,314	-5,41
782,537	-4,35
782,76	-5,24
782,984	-4,97
783,207	-5,31
783,431	-3,45
783,654	-4,83
783,877	-7,07
784,1	-8,45
784,324	-7,52
784,547	-8,43
784,77	-11,16
784,993	-13,48
785,216	-14,88
785,44	-15,47
785,663	-17,81
785,886	-14,42
786,109	-14,33
786,332	-14,97
786,555	-13,94
786,778	-11,9
787,001	-11,99
787,224	-11,11
787,447	-7,95
787,67	-8,39
787,893	-8,59
788,116	-8,05
788,339	-6,81
788,561	-6,99
788,784	-8,84
789,007	-8,31
789,23	-9,92
789,453	-10,02
789,675	-12,27
789,898	-15,18
790,121	-17,11
790,344	-18,19
790,566	-16,83
790,789	-15,47
791,012	-14,36
791,234	-12,37
791,457	-9,01
791,679	-7,89
791,902	-6,93
792,124	-6,92
792,347	-7,05
792,569	-7,07
792,792	-11,59
793,014	-9,84
793,237	-7,88
793,459	-8,06
793,681	-7,7
793,904	-8,96
794,126	-9,59
794,348	-11,34
794,571	-9,17
794,793	-11,15
795,015	-9,95
795,237	-10,04
795,46	-9,89
795,682	-9,59
795,904	-6,5
796,126	-7,79
796,348	-8,03
796,57	-3,4
796,792	-2,71
797,014	0,25
797,237	2,26
797,459	2,64
797,681	3,17
797,903	1,15
798,124	1,31
798,346	13,1
798,568	14,87
798,79	18,02
799,012	18,81
799,234	20,86
799,456	22,84
799,678	26,7
799,899	24,49
800,121	22,07
800,343	20,6
800,565	19,55
800,786	21,77
801,008	24,03
801,23	24,32
801,451	25,02
801,673	23,47
801,895	22,01
802,116	23,37
802,338	24,92
802,559	26,72
802,781	24,55
803,002	27,13
803,224	29,65
803,445	25,73
803,667	27,02
803,888	26,19
804,109	25,08
804,331	25,93
804,552	26,62
804,773	29,11
804,995	25,93
805,216	11,41
805,437	9,89
805,658	7,05
805,88	5,71
806,101	5,09
806,322	4,78
806,543	3,63
806,764	0,9
806,985	3,07
807,207	4,5
807,428	7,33
807,649	4,52
807,87	2,18
808,091	2,77
808,312	3,17
808,533	8,81
808,754	9,66
808,975	8,21
809,195	9,87
809,416	9,36
809,637	9,27
809,858	9,32
810,079	7,3
810,3	9,5
810,52	7,53
810,741	5,65
810,962	4,37
811,183	2,72
811,403	3,55
811,624	2,39
811,845	3,63
812,065	5,39
812,286	4,93
812,506	4,43
812,727	5,78
812,948	6,55
813,168	8,58
813,389	6,96
813,609	9,71
813,83	9,01
814,05	8,1
814,27	6,53
814,491	9,93
814,711	8,67
814,931	6,29
815,152	4,63
815,372	1,92
815,592	2,57
815,813	1,82
816,033	-1,78
816,253	-0,35
816,473	-1,65
816,694	-1,52
816,914	0,01
817,134	0,06
817,354	-0,29
817,574	-0,46
817,794	0,23
818,014	-0,08
818,234	-1,58
818,454	-2,16
818,674	-3,51
818,894	-6,32
819,114	-3,77
819,334	-2,39
819,554	-1,42
819,774	1,42
819,994	-1,41
820,214	-1,9
820,433	-2,79
820,653	-3,66
820,873	-1,35
821,093	-0,46
821,312	-2,68
821,532	-1,26
821,752	0,71
821,972	-0,24
822,191	0,82
822,411	-1,17
822,63	-0,67
822,85	1,15
823,07	-2,64
823,289	-0,88
823,509	-2,28
823,728	-0,74
823,948	-2,46
824,167	-2,53
824,387	-2,28
824,606	-0,47
824,825	-1,04
825,045	-1,02
825,264	-2,43
825,483	-1,26
825,703	0,47
825,922	-1,02
826,141	-3,39
826,361	-4,87
826,58	-9,59
826,799	-12,39
827,018	-11,32
827,237	-9,98
827,456	-8,49
827,676	-9,36
827,895	-9,31
828,114	-7,68
828,333	-6,9
828,552	-6
828,771	-5,19
828,99	-7,38
829,209	-6,55
829,428	-3,6
829,647	-4,74
829,866	-2,8
830,084	-3,48
830,303	-3,13
830,522	-4,17
830,741	-4,15
830,96	-4,24
831,179	-3,78
831,397	-6,4
831,616	-6,59
831,835	-7,25
832,053	-5,65
832,272	-4,43
832,491	-2,53
832,709	-3,74
832,928	-1,86
833,147	-0,12
833,365	1,69
833,584	7,26
833,802	9,37
834,021	8,55
834,239	9,29
834,458	7,87
834,676	3,94
834,894	2,68
835,113	1,69
835,331	-0,15
835,55	-0,79
835,768	0,51
835,986	0,4
836,204	-1,49
836,423	-0,59
836,641	-0,68
836,859	-2,27
837,077	-1,33
837,296	-1,62
837,514	-1,58
837,732	-1,24
837,95	-2,82
838,168	0,18
838,386	-0,14
838,604	2,4
838,822	2,28
839,04	0,67
839,258	0,28
839,476	2,2
839,694	1,91
839,912	-0,68
840,13	-0,82
840,348	0,85
840,566	-1,36
840,783	0,64
841,001	-0,57
841,219	2,28
841,437	3,86
841,655	4,8
841,872	4,76
842,09	4,37
842,308	5,37
842,525	4,93
842,743	6,17
842,961	5,23
843,178	3,22
843,396	6,24
843,613	7,24
843,831	8,12
844,048	8,07
844,266	8,22
844,483	6,73
844,701	7,27
844,918	6,23
845,136	5,8
845,353	3,14
845,57	5,19
845,788	7,85
846,005	5,22
846,222	3,11
846,439	3,92
846,657	3,47
846,874	3,22
847,091	0,15
847,308	1,2
847,526	0,57
847,743	0,18
847,96	-2,26
848,177	-2,59
848,394	-2,44
848,611	-2,85
848,828	-2,99
849,045	-4,23
849,262	-4,45
849,479	-4,9
849,696	-6,09
849,913	-7,41
850,13	-12,1
850,347	-9,17
850,564	-11,63
850,78	-13,2
850,997	-14,96
851,214	-13,35
851,431	-12,46
851,647	-14,49
851,864	-13,46
852,081	-10,64
852,298	-14,26
852,514	-15,96
852,731	-13,9
852,948	-13,12
853,164	-12,35
853,381	-10,41
853,597	-11,95
853,814	-14,26
854,03	-16,66
854,247	-16,15
854,463	-16,67
854,68	-17,67
854,896	-15,71
855,113	-16,09
855,329	-15,5
855,545	-12,76
855,762	-12,52
855,978	-14,51
856,194	-15,2
856,411	-11,5
856,627	-9,94
856,843	-9,07
857,059	-5,75
857,275	-4,79
857,492	-4,19
857,708	0,3
857,924	-0,4
858,14	1,83
858,356	1,59
858,572	1,59
858,788	-1,14
859,004	0,64
859,22	-1,13
859,436	-1,51
859,652	-2,82
859,868	-4,04
860,084	-4,92
860,3	-3,37
860,516	-1,32
860,731	-0,9
860,947	-2,83
861,163	-1,09
861,379	0,36
861,595	0,29
861,81	1,06
862,026	2,09
862,242	2,09
862,457	2,45
862,673	4,09
862,889	4,18
863,104	3,95
863,32	4,16
863,535	5,95
863,751	-0,03
863,966	2,71
864,182	4,44
864,397	1,92
864,613	1,37
864,828	-0,88
865,044	0,67
865,259	2,63
865,474	3,92
865,69	5,23
865,905	6,62
866,12	6,02
866,336	8,46
866,551	9,29
866,766	8,88
866,981	7,09
867,196	6
867,412	7,02
867,627	7,61
867,842	6,07
868,057	5,72
868,272	4,75
868,487	4,52
868,702	1,51
868,917	0,55
869,132	0,76
869,347	0,97
869,562	-0,62
869,777	-0,44
869,992	0,01
870,207	-1,93
870,422	-1,78
870,636	-4,38
870,851	-4,58
871,066	-6,44
871,281	-5,53
871,495	-6,82
871,71	-5,72
871,925	-9,45
872,14	-9,46
872,354	-12,7
872,569	-13,61
872,783	-11,92
872,998	-12,69
873,213	-13,91
873,427	-11,34
873,642	-10,2
873,856	-9,94
874,071	-10,19
874,285	-12,73
874,5	-13,38
874,714	-15,36
874,928	-15,48
875,143	-17,31
875,357	-16,07
875,571	-17,41
875,786	-16,12
876	-13,96
876,214	-11,52
876,429	-16,23
876,643	-15,61
876,857	-13,9
877,071	-13,8
877,285	-14,93
877,499	-19,09
877,714	-16,38
877,928	-15,02
878,142	-16,08
878,356	-18,31
878,57	-16,2
878,784	-16,23
878,998	-15,8
879,212	-13,83
879,426	-15,22
879,639	-13,89
879,853	-15
880,067	-15,61
880,281	-16,52
880,495	-15,43
880,709	-13,93
880,922	-11,89
881,136	-10,6
881,35	-7,41
881,564	-7,99
881,777	-9,18
881,991	-7,65
882,205	-4,77
882,418	-5,82
882,632	-8,02
882,845	-8,36
883,059	-6,04
883,273	-6,3
883,486	-7,33
883,7	-2,77
883,913	-3,41
884,126	0,1
884,34	-3,48
884,553	-4,66
884,767	0,67
884,98	0,66
885,193	-0,96
885,407	-2,18
885,62	-0,23
885,833	-0,45
886,046	0,05
886,26	-1,07
886,473	0,1
886,686	-1,36
886,899	0,82
887,112	0,1
887,326	-1,73
887,539	-0,45
887,752	0,87
887,965	-2,29
888,178	-1,37
888,391	-0,99
888,604	-2,73
888,817	-5,53
889,03	-4,11
889,243	-6,05
889,455	-8,86
889,668	-8,29
889,881	-5,58
890,094	-6,95
890,307	-10,38
890,52	-7,89
890,732	-8,5
890,945	-7,04
891,158	-8,08
891,37	-11,4
891,583	-10,45
891,796	-8,9
892,008	-10,17
892,221	-10,8
892,434	-14,1
892,646	-15,17
892,859	-16,89
893,071	-15,89
893,284	-13,78
893,496	-15,02
893,709	-15,96
893,921	-14,75
894,133	-15,13
894,346	-16,13
894,558	-16,17
894,771	-15,88
894,983	-13,37
895,195	-12,09
895,407	-10,18
895,62	-13,12
895,832	-11,17
896,044	-8,99
896,256	-9,25
896,468	-11,57
896,681	-9,16
896,893	-8,84
897,105	-9,53
897,317	-10,78
897,529	-8,65
897,741	-7,59
897,953	-5,79
898,165	-6,94
898,377	-8,65
898,589	-6,25
898,801	-6,5
899,013	-4,02
899,224	-1,57
899,436	1,33
899,648	0,47
899,86	-0,88
900,072	2,01
900,283	3,14
900,495	4,58
900,707	5,07
900,919	2,44
901,13	4,31
901,342	2,25
901,554	1,4
901,765	1,53
901,977	-1,37
902,188	-1,06
902,4	-2,13
902,611	-3,39
902,823	-5,76
903,034	-7,95
903,246	-8,77
903,457	-10,58
903,669	-10,58
903,88	-9,65
904,091	-11,43
904,303	-10,31
904,514	-11,53
904,725	-9,74
904,936	-8,24
905,148	-8,76
905,359	-7,53
905,57	-7,79
905,781	-10,48
905,992	-12,18
906,204	-11,66
906,415	-11,83
906,626	-14,06
906,837	-11,4
907,048	-12,84
907,259	-13,94
907,47	-14,19
907,681	-15,08
907,892	-12,16
908,103	-14,65
908,314	-16,2
908,525	-12,98
908,735	-12,62
908,946	-13,72
909,157	-14,27
909,368	-11,8
909,579	-9,34
909,789	-11,63
910	-11,56
910,211	-10,46
910,421	-11,57
910,632	-9,52
910,843	-13,76
911,053	-10,27
911,264	-8,38
911,475	-9,57
911,685	-9,41
911,896	-8,76
912,106	-8,5
912,317	-9,03
912,527	-6,52
912,737	-7,72
912,948	-7,48
913,158	-7,48
913,369	-10,36
913,579	-7,8
913,789	-8,02
914	-3,8
914,21	-3,21
914,42	-2,4
914,63	-1,26
914,841	-1,01
915,051	-1,01
915,261	0,74
915,471	4,18
915,681	5,21
915,891	5,57
916,101	3,9
916,311	5,09
916,521	5,63
916,731	6,01
916,941	9,87
917,151	8,5
917,361	11,93
917,571	7,43
917,781	6,5
917,991	5,55
918,201	5,9
918,411	2,7
918,621	3
918,83	4,72
919,04	2,57
919,25	5,49
919,46	7,01
919,669	4,35
919,879	3,74
920,089	1,07
920,298	-0,32
920,508	-1,19
920,717	-0,65
920,927	-3,41
921,136	-3,25
921,346	-3,95
921,555	-6,81
921,765	-7,81
921,974	-9,75
922,184	-12,04
922,393	-11,9
922,603	-13,36
922,812	-11,26
923,021	-11,89
923,23	-14
923,44	-17,32
923,649	-18,19
923,858	-18,36
924,067	-17,63
924,277	-19,57
924,486	-16,88
924,695	-18,23
924,904	-16,51
925,113	-17,93
925,322	-18,24
925,531	-17,06
925,74	-19,17
925,949	-20,42
926,158	-18,54
926,367	-18,55
926,576	-17,34
926,785	-16,49
926,994	-17,74
927,203	-16,47
927,412	-16,42
927,621	-16,58
927,83	-12,98
928,038	-12,85
928,247	-12,94
928,456	-13,39
928,665	-12,77
928,873	-11,8
929,082	-9,16
929,291	-8,62
929,499	-6,43
929,708	-5,97
929,916	-5,29
930,125	-5,23
930,333	-6,93
930,542	-4,42
930,75	-1,22
930,959	-1,31
931,167	-0,73
931,376	-1,01
931,584	1,08
931,793	2,86
932,001	1,62
932,209	-0,75
932,418	-3,99
932,626	-5,19
932,834	-6,02
933,042	-10,21
933,251	-9,82
933,459	-8,93
933,667	-10,14
933,875	-9,86
934,083	-7,95
934,291	-8,38
934,499	-7,34
934,707	-7,68
934,915	-7,96
935,123	-4,95
935,331	-6,08
935,539	-7,55
935,747	-9,4
935,955	-10,53
936,163	-10
936,371	-10,68
936,579	-9,16
936,787	-7,29
936,995	-9,97
937,202	-12,99
937,41	-13,92
937,618	-15,42
937,826	-15,11
938,033	-18,32
938,241	-20,91
938,449	-17,75
938,656	-15,34
938,864	-14,67
939,071	-14,11
939,279	-11,82
939,486	-7,89
939,694	-9,02
939,901	-11,58
940,109	-10,89
940,316	-10,13
940,524	-11,01
940,731	-12,9
940,939	-11,74
941,146	-12,19
941,353	-12,12
941,561	-12,68
941,768	-13,1
941,975	-12,38
942,182	-12,85
942,39	-13,05
942,597	-10,52
942,804	-9,85
943,011	-9,59
943,218	-9,28
943,425	-8,9
943,632	-8,48
943,839	-9
944,046	-8,25
944,253	-7,68
944,46	-7,57
944,667	-4,11
944,874	-6,27
945,081	-5,48
945,288	-2,83
945,495	-0,3
945,702	-0,23
945,909	-3,32
946,115	-2,28
946,322	-2,11
946,529	-4,81
946,736	-5,9
946,942	-4,98
947,149	-4,93
947,356	-5,72
947,562	-6,98
947,769	-6,65
947,976	-7,9
948,182	-6,57
948,389	-7,51
948,595	-6,87
948,802	-7,17
949,008	-8,36
949,215	-7,25
949,421	-8,94
949,628	-10,63
949,834	-9,43
950,04	-10,12
950,247	-6,05
950,453	-4,88
950,659	-6,51
950,865	-4,33
951,072	-8,58
951,278	-5,19
951,484	-6,66
951,69	-10,35
951,896	-12,27
952,103	-12,86
952,309	-10,46
952,515	-10,36
952,721	-8,29
952,927	-6,12
953,133	-6,29
953,339	-8,57
953,545	-9,45
953,751	-8,5
953,957	-5,49
954,163	-7,44
954,369	-7,64
954,574	-8,45
954,78	-8,77
954,986	-7,5
955,192	-4,43
955,398	-6,88
955,603	-9,7
955,809	-8,1
956,015	-7,54
956,22	-7,9
956,426	-6,5
956,632	-10,66
956,837	-11,43
957,043	-10,45
957,248	-9,87
957,454	-8,76
957,66	-13,15
957,865	-12,39
958,07	-10,2
958,276	-11,84
958,481	-12,77
958,687	-13,76
958,892	-13,42
959,097	-15,25
959,303	-15,48
959,508	-15,97
959,713	-15,2
959,919	-15,07
960,124	-16,42
960,329	-14,96
960,534	-11,68
960,739	-10,18
960,945	-9,72
961,15	-9,78
961,355	-10,89
961,56	-14,48
961,765	-15,33
961,97	-15,26
962,175	-13,12
962,38	-15,34
962,585	-13,53
962,79	-16,03
962,995	-16,08
963,2	-17,15
963,404	-16,89
963,609	-19,05
963,814	-20,1
964,019	-22,31
964,224	-24,08
964,428	-22,85
964,633	-19,17
964,838	-18,1
965,042	-17,87
965,247	-19,78
965,452	-18,26
965,656	-17,02
965,861	-17,4
966,066	-18,63
966,27	-15,94
966,475	-11,8
966,679	-17,75
966,884	-16,2
967,088	-17,8
967,292	-17,71
967,497	-14,67
967,701	-16,28
967,906	-15,6
968,11	-12,11
968,314	-7,12
968,518	-9,27
968,723	-6,6
968,927	-6,78
969,131	-4,88
969,335	-2,33
969,539	-1,84
969,744	-0,41
969,948	1,87
970,152	3,56
970,356	6,09
970,56	6,27
970,764	4,07
970,968	4,74
971,172	4,95
971,376	6,32
971,58	9,22
971,784	9,33
971,988	6,77
972,192	10,44
972,395	10,55
972,599	7,26
972,803	5,1
973,007	7,29
973,21	5,8
973,414	5,06
973,618	3,89
973,822	2,19
974,025	3,72
974,229	3,6
974,432	0,39
974,636	-2,91
974,84	-1,51
975,043	-2,21
975,247	-3,84
975,45	-4,85
975,654	-4,11
975,857	-2,17
976,06	-3,94
976,264	-5,58
976,467	-4,44
976,671	-4,71
976,874	-3,38
977,077	-2,3
977,28	-3,4
977,484	-6,12
977,687	-7,73
977,89	-6,6
978,093	-6,38
978,297	-4,63
978,5	-6,9
978,703	-4,68
978,906	-1,8
979,109	-1,32
979,312	1,31
979,515	1,06
979,718	1,1
979,921	1,02
980,124	-1,23
980,327	-2,18
980,53	-1,16
980,733	0,65
980,936	2,22
981,138	0,24
981,341	1,54
981,544	1,43
981,747	1,24
981,949	-0,44
982,152	-0,44
982,355	-0,61
982,558	1,16
982,76	-1,91
982,963	-3,17
983,165	-2,95
983,368	-2,27
983,571	-2,89
983,773	1,3
983,976	1,68
984,178	0,58
984,381	-0,11
984,583	-2,11
984,785	-1,48
984,988	0,32
985,19	-0,5
985,392	-3
985,595	-6,3
985,797	-6,08
985,999	-2,68
986,202	-0,05
986,404	0,53
986,606	3,04
986,808	1,63
987,01	4,03
987,212	2,8
987,415	0,89
987,617	1,18
987,819	0,99
988,021	1,61
988,223	-0,08
988,425	-1,6
988,627	-1,71
988,829	-5,59
989,031	-2,8
989,232	-2,18
989,434	-0,91
989,636	-2,22
989,838	-3,59
990,04	-3,86
990,242	-4,79
990,443	-6,22
990,645	-3,6
990,847	-0,59
991,048	-2,42
991,25	-3,91
991,452	-4,71
991,653	-6,15
991,855	-6,68
992,057	-8,17
992,258	-8,47
992,46	-9,49
992,661	-8,24
992,863	-8,98
993,064	-8,24
993,265	-11,13
993,467	-12,43
993,668	-9,39
993,87	-8,04
994,071	-8,66
994,272	-9,29
994,473	-7,42
994,675	-5
994,876	-5,12
995,077	-2,87
995,278	-3,05
995,48	-2,9
995,681	-5,47
995,882	-3,06
996,083	-3,04
996,284	-6,83
996,485	-6,12
996,686	-6,78
996,887	-9,19
997,088	-13,29
997,289	-12,92
997,49	-14,51
997,691	-15,22
997,892	-14,75
998,092	-10,2
998,293	-10,54
998,494	-10,99
998,695	-11,8
998,896	-11,6
999,096	-11,61
999,297	-10,4
999,498	-12,07
999,698	-13,31
999,899	-15,94
1000,1	-19,22
1000,3	-18,89
1000,501	-19,19
1000,701	-20,71
1000,902	-22,95
1001,102	-22,1
1001,303	-20,84
1001,503	-22,82
1001,704	-21,98
1001,904	-22,63
1002,105	-23,96
1002,305	-21,98
1002,505	-22,26
1002,706	-23
1002,906	-23,7
1003,106	-24,77
1003,306	-23,31
1003,507	-21,63
1003,707	-21,13
1003,907	-18,62
1004,107	-16,8
1004,307	-19,84
1004,507	-17,23
1004,707	-17,58
1004,907	-19,42
1005,107	-19,19
1005,308	-19,14
1005,507	-20,95
1005,707	-17,15
1005,907	-17,75
1006,107	-15,63
1006,307	-14,75
1006,507	-15,92
1006,707	-14,74
1006,907	-13,71
1007,106	-13,68
1007,306	-14,78
1007,506	-16
1007,706	-15,87
1007,905	-18,14
1008,105	-16,23
1008,305	-17,35
1008,504	-17,21
1008,704	-11,8
1008,903	-11,65
1009,103	-8,41
1009,303	-8,12
1009,502	-7,38
1009,702	-6,95
1009,901	-7,12
1010,1	-11,15
1010,3	-10,09
1010,499	-10,01
1010,699	-12,18
1010,898	-14,79
1011,097	-13,05
1011,296	-12,99
1011,496	-13,9
1011,695	-13,56
1011,894	-16,2
1012,093	-12,35
1012,293	-12,46
1012,492	-13,56
1012,691	-12,67
1012,89	-12,04
1013,089	-14,49
1013,288	-13,7
1013,487	-11,95
1013,686	-10,45
1013,885	-11,53
1014,084	-9,72
1014,283	-9,51
1014,482	-9,25
1014,681	-9,16
1014,88	-14,43
1015,078	-12,1
1015,277	-15,1
1015,476	-16,94
1015,675	-17,86
1015,873	-18,98
1016,072	-20,25
1016,271	-16,2
1016,47	-19,39
1016,668	-18,82
1016,867	-19,18
1017,065	-20,15
1017,264	-22,33
1017,463	-22,43
1017,661	-23,96
1017,86	-24,47
1018,058	-22,19
1018,256	-24,77
1018,455	-24,68
1018,653	-22,74
1018,852	-22,75
1019,05	-25,49
1019,248	-25,54
1019,447	-26,23
1019,645	-27,58
1019,843	-29,33
1020,041	-27,92
1020,24	-28,46
1020,438	-26,59
1020,636	-27,17
1020,834	-29,88
1021,032	-26,16
1021,23	-28,63
1021,428	-27,53
1021,626	-22,86
1021,824	-22,01
1022,022	-22,85
1022,22	-20,5
1022,418	-20
1022,616	-19,51
1022,814	-18,96
1023,012	-19,35
1023,21	-16,11
1023,408	-15,02
1023,606	-16,09
1023,803	-10,35
1024,001	-10,04
1024,199	-13,82
1024,397	-12,19
1024,594	-13,24
1024,792	-15,14
1024,99	-13,7
1025,187	-12,82
1025,385	-8,33
1025,582	-8
1025,78	-8,66
1025,977	-7,13
1026,175	-6,01
1026,372	-5,98
1026,57	-8,46
1026,767	-5,26
1026,965	-4,63
1027,162	-5,46
1027,359	-6,19
1027,557	-6,17
1027,754	-9,13
1027,951	-11,07
1028,148	-9,09
1028,346	-10,94
1028,543	-13,41
1028,74	-13,68
1028,937	-16,47
1029,134	-17,17
1029,331	-18,55
1029,528	-18,01
1029,725	-18,02
1029,923	-21,63
1030,12	-17,63
1030,317	-16,25
1030,513	-15,08
1030,71	-13,21
1030,907	-10,97
1031,104	-12,53
1031,301	-13,37
1031,498	-15,11
1031,695	-16,63
1031,892	-15,39
1032,088	-16,77
1032,285	-19,79
1032,482	-20,44
1032,678	-22,29
1032,875	-25,09
1033,072	-25,17
1033,268	-24,61
1033,465	-23,9
1033,662	-25,01
1033,858	-25,42
1034,055	-23,91
1034,251	-21,59
1034,448	-21,2
1034,644	-19,72
1034,84	-16,22
1035,037	-13,8
1035,233	-12,42
1035,43	-11,04
1035,626	-12,77
1035,822	-12,02
1036,019	-13,13
1036,215	-17,17
1036,411	-16,92
1036,607	-18,27
1036,803	-20,46
1037	-22,11
1037,196	-22,57
1037,392	-22,77
1037,588	-24,16
1037,784	-21,76
1037,98	-22,75
1038,176	-23,35
1038,372	-22,69
1038,568	-21,14
1038,764	-19,48
1038,96	-16,08
1039,156	-16,94
1039,352	-18,81
1039,547	-17,15
1039,743	-16,66
1039,939	-15,02
1040,135	-15
1040,331	-17,49
1040,526	-16,74
1040,722	-19,12
1040,918	-21,68
1041,113	-25,2
1041,309	-25,52
1041,505	-28,07
1041,7	-26,39
1041,896	-26,7
1042,091	-26,73
1042,287	-26,82
1042,482	-26,75
1042,678	-27,57
1042,873	-27,41
1043,069	-27,59
1043,264	-26,99
1043,459	-25,51
1043,655	-24,57
1043,85	-25,99
1044,045	-25,22
1044,24	-24,38
1044,436	-22,66
1044,631	-23,92
1044,826	-24,44
1045,021	-29,58
1045,216	-28,04
