Data from FLMT021711__18__17-56-42-432.txt Node

Date: Tue Nov 05 17:56:42 CET 2024
User: Etudiants TP
Spectrometer: FLMT02171
Trigger mode: 0
Integration Time (sec): 1,000000E-1
Scans to average: 5
Electric dark correction enabled: true
Nonlinearity correction enabled: false
Boxcar width: 15
XAxis mode: Wavelengths
Number of Pixels in Spectrum: 3648
>>>>>Begin Spectral Data<<<<<
194,658	-74,44
194,923	-72,07
195,188	-65,09
195,453	-65,11
195,717	-59,51
195,982	-56,37
196,247	-54,48
196,512	-57,52
196,777	-55,3
197,042	-53,68
197,307	-52,91
197,572	-48,77
197,837	-49,09
198,101	-46,03
198,366	-43,25
198,631	-41,91
198,896	-34,55
199,161	-27,5
199,425	-18,79
199,69	-8,73
199,955	-8,48
200,22	-12,77
200,484	-12,81
200,749	-14,11
201,014	-14,49
201,278	-13,64
201,543	-12,38
201,807	-13,4
202,072	-12,2
202,337	-14,19
202,601	-13,33
202,866	-16,04
203,13	-14,19
203,395	-16,57
203,659	-15,81
203,924	-17,14
204,189	-17,64
204,453	-17,16
204,717	-13,98
204,982	-12,63
205,246	-10,86
205,511	-9,5
205,775	-9,8
206,04	-4,17
206,304	-4,26
206,568	-2,96
206,833	-2,39
207,097	-1,68
207,361	2,11
207,626	6,72
207,89	8,07
208,154	8,86
208,419	11,76
208,683	13,02
208,947	16,1
209,211	15,98
209,476	15,43
209,74	14,87
210,004	14,7
210,268	14,49
210,532	19,3
210,796	19,85
211,061	21,02
211,325	22,01
211,589	20,69
211,853	21,07
212,117	20,89
212,381	20,6
212,645	20,88
212,909	21,26
213,173	17,41
213,437	18,04
213,701	17,66
213,965	18,24
214,229	13,44
214,493	13,73
214,757	10,96
215,021	11,11
215,285	16,09
215,549	17,95
215,813	13,89
216,077	12,27
216,34	13,73
216,604	12,4
216,868	12,63
217,132	12,51
217,396	13,1
217,659	13,25
217,923	10,25
218,187	10,96
218,451	9,91
218,714	7,29
218,978	7,12
219,242	9,87
219,505	9,38
219,769	11
220,033	11,21
220,296	13,68
220,56	14,71
220,824	13,86
221,087	14,19
221,351	14,46
221,614	12,8
221,878	14,16
222,142	11,72
222,405	11,51
222,669	11,21
222,932	8,44
223,196	5,81
223,459	0,91
223,722	0,53
223,986	-0,7
224,249	-1,83
224,513	-1,66
224,776	-1,14
225,04	-1,87
225,303	-1,61
225,566	-3,64
225,83	-0,5
226,093	2,34
226,356	0,33
226,62	-0,69
226,883	0,45
227,146	1,57
227,409	-0,83
227,673	-2,9
227,936	-4,17
228,199	-4,11
228,462	-7,93
228,725	-8,09
228,989	-8,72
229,252	-7,67
229,515	-1,13
229,778	-1,54
230,041	-2,23
230,304	-3,29
230,567	-2,33
230,83	-2,81
231,093	0,88
231,356	1,27
231,619	7,94
231,882	6,63
232,145	9,28
232,408	8,01
232,671	7,08
232,934	6,82
233,197	4,95
233,46	3,54
233,723	6,3
233,986	2,8
234,249	0,43
234,512	2,07
234,775	6,42
235,037	5,77
235,3	4,91
235,563	6,2
235,826	7,17
236,089	10,36
236,351	9,97
236,614	13,62
236,877	12,99
237,14	15,22
237,402	14,52
237,665	7,23
237,928	6,35
238,19	4,65
238,453	7,57
238,716	7,17
238,978	6,38
239,241	5
239,503	7,07
239,766	3,11
240,029	1,54
240,291	5,08
240,554	5,74
240,816	5,67
241,079	6,16
241,341	6,07
241,604	4,42
241,866	0,69
242,129	2,22
242,391	4,54
242,653	3,43
242,916	3,68
243,178	3,24
243,441	3,67
243,703	3,04
243,965	1,19
244,228	0,78
244,49	1,29
244,752	1,4
245,015	3,4
245,277	5,54
245,539	4,53
245,801	6,73
246,064	6,57
246,326	5,94
246,588	6,18
246,85	8,01
247,112	8,94
247,374	12,46
247,637	13,89
247,899	11,82
248,161	11,58
248,423	6,26
248,685	6,31
248,947	5,27
249,209	4,71
249,471	5,94
249,733	6,83
249,995	5,48
250,257	4,59
250,519	2,42
250,781	5,07
251,043	2,23
251,305	4,06
251,567	5,7
251,829	6,68
252,091	7,26
252,353	3,01
252,615	3,83
252,876	0,88
253,138	-1,02
253,4	-5,51
253,662	-4,05
253,924	-2,23
254,185	-0,97
254,447	-0,13
254,709	-1,67
254,971	0,07
255,232	1,79
255,494	-0,76
255,756	-2,02
256,017	-1,09
256,279	0,58
256,541	0,46
256,802	-0,88
257,064	0,32
257,326	-0,06
257,587	2,15
257,849	4,16
258,11	8,68
258,372	10,15
258,633	11,17
258,895	11,44
259,156	9,6
259,418	7,48
259,679	3,4
259,941	0,75
260,202	2
260,464	4,82
260,725	2,61
260,987	2,32
261,248	1,11
261,509	2,58
261,771	-0,01
262,032	1,01
262,293	0,8
262,555	0,78
262,816	0,18
263,077	-2,02
263,338	-4,54
263,6	-4,22
263,861	-4,88
264,122	-5,86
264,383	-3,39
264,645	-2,54
264,906	-1,88
265,167	-0,83
265,428	-2,04
265,689	-3,07
265,95	-6,57
266,211	-5,62
266,473	-6,63
266,734	-9,08
266,995	-13,63
267,256	-11,83
267,517	-9,63
267,778	-6,4
268,039	-5,48
268,3	-6,73
268,561	-8,71
268,822	-4,63
269,083	-5,92
269,344	-7,26
269,604	-8,93
269,865	-7,04
270,126	-10,61
270,387	-10,08
270,648	-9,27
270,909	-9,37
271,17	-10,16
271,43	-13,17
271,691	-16,46
271,952	-17,26
272,213	-15,02
272,473	-19,49
272,734	-17,32
272,995	-15,08
273,256	-14,22
273,516	-11,02
273,777	-13,84
274,038	-10,08
274,298	-13,02
274,559	-13,58
274,82	-8,61
275,08	-5,08
275,341	-3,36
275,601	-3,85
275,862	-5,19
276,122	-5,37
276,383	-4,32
276,643	-1,8
276,904	-3,08
277,164	1,02
277,425	1,81
277,685	6,33
277,946	5,87
278,206	7,46
278,467	9,14
278,727	8,94
278,987	7,77
279,248	7,38
279,508	9,65
279,768	12,44
280,029	13,56
280,289	10,55
280,549	11,3
280,81	9,43
281,07	7,47
281,33	7,97
281,59	6,21
281,851	10,56
282,111	9,36
282,371	7,71
282,631	10,12
282,891	9,88
283,151	7,06
283,412	4,1
283,672	2,22
283,932	1,63
284,192	2,78
284,452	0,48
284,712	-1,64
284,972	-3,2
285,232	-5,97
285,492	-3,59
285,752	-7,21
286,012	-0,63
286,272	1,32
286,532	-1,58
286,792	-1,8
287,052	1,45
287,312	1,21
287,571	-0,56
287,831	-0,29
288,091	-2,14
288,351	-1,31
288,611	2,46
288,871	4,12
289,13	4,38
289,39	1,77
289,65	2,66
289,91	-0,64
290,17	1,66
290,429	5,36
290,689	2,26
290,949	-2,07
291,208	-0,69
291,468	2,91
291,728	5,19
291,987	7,14
292,247	7,02
292,506	10,09
292,766	12,58
293,026	11,04
293,285	11,86
293,545	14,63
293,804	16,17
294,064	12,34
294,323	8,89
294,583	9,44
294,842	10,23
295,102	9,28
295,361	9,66
295,621	11,21
295,88	12,58
296,139	12,2
296,399	13,49
296,658	7,5
296,917	7,88
297,177	5,48
297,436	5,9
297,695	4,02
297,955	5,14
298,214	2,54
298,473	3,8
298,732	6,08
298,992	9,47
299,251	9,48
299,51	5,27
299,769	5,3
300,028	4,55
300,287	4,14
300,547	3,8
300,806	1,96
301,065	6,91
301,324	8,01
301,583	3,43
301,842	-0,83
302,101	-3,26
302,36	-2,74
302,619	-1,71
302,878	-1,19
303,137	-2,97
303,396	-0,99
303,655	0,74
303,914	-3,44
304,173	-2,69
304,432	-3,87
304,691	0,43
304,95	-3,54
305,208	1,47
305,467	2,2
305,726	1,85
305,985	3,34
306,244	4,97
306,503	4,87
306,761	2,17
307,02	-2,73
307,279	-1,93
307,537	-0,21
307,796	-2,59
308,055	-5
308,314	-3,68
308,572	-5,57
308,831	-4,37
309,09	-5,45
309,348	-4,15
309,607	-3,44
309,865	0,4
310,124	0,16
310,382	2,55
310,641	3,42
310,9	0,92
311,158	1,3
311,417	-0,46
311,675	-0,09
311,933	1,25
312,192	3,12
312,45	4,78
312,709	4,24
312,967	4,21
313,226	3,46
313,484	1,98
313,742	1,22
314,001	-1,25
314,259	-2,53
314,517	-2,41
314,776	0,63
315,034	5,57
315,292	3,32
315,55	0,91
315,809	0,11
316,067	1,49
316,325	-1,4
316,583	-0,34
316,841	-1,93
317,1	-4,68
317,358	-8,24
317,616	-9,39
317,874	-10,3
318,132	-10,33
318,39	-10,48
318,648	-13,07
318,906	-13,47
319,164	-14,54
319,422	-15,85
319,68	-16,22
319,938	-15,43
320,196	-16,27
320,454	-16,22
320,712	-17,75
320,97	-16,98
321,228	-20,22
321,486	-17,95
321,744	-16,5
322,002	-14,36
322,26	-15,65
322,517	-15,12
322,775	-18,38
323,033	-20,06
323,291	-17,2
323,549	-14,67
323,806	-11,45
324,064	-10,56
324,322	-8,39
324,58	-9,36
324,837	-6,77
325,095	-7,93
325,353	-6,4
325,61	-3,98
325,868	-4,77
326,126	-2,61
326,383	-3,66
326,641	-4,28
326,898	-2,53
327,156	-1,98
327,413	0,09
327,671	-1,12
327,928	0,78
328,186	1,48
328,443	-0,53
328,701	4,13
328,958	4,4
329,216	6,24
329,473	3,87
329,731	4,55
329,988	4,73
330,245	7,04
330,503	7,79
330,76	8,92
331,017	9,8
331,275	7,43
331,532	6,88
331,789	3,35
332,047	2,07
332,304	-1,23
332,561	-0,23
332,818	-0,72
333,076	1,73
333,333	3,51
333,59	2,75
333,847	4,75
334,104	2,48
334,361	2,34
334,618	1,73
334,876	1,23
335,133	1,18
335,39	-1,38
335,647	1,09
335,904	-2,39
336,161	-4,49
336,418	-3,36
336,675	-8,47
336,932	-7,13
337,189	-7,93
337,446	-6,3
337,703	-7,09
337,96	-10,43
338,216	-10,06
338,473	-14,32
338,73	-14,74
338,987	-13,77
339,244	-11,45
339,501	-13,76
339,757	-12,67
340,014	-11,17
340,271	-8,48
340,528	-8,16
340,785	-4,86
341,041	-5,23
341,298	-9,41
341,555	-8,89
341,811	-9,16
342,068	-11,22
342,325	-11,89
342,581	-8,6
342,838	-8,47
343,094	-8,56
343,351	-8,24
343,608	-11,45
343,864	-8,86
344,121	-8,19
344,377	-10,27
344,634	-10,28
344,89	-11,46
345,147	-12,26
345,403	-13,92
345,66	-14,55
345,916	-13,25
346,172	-14,84
346,429	-15,18
346,685	-16,44
346,942	-16,95
347,198	-21,35
347,454	-19,65
347,711	-19,15
347,967	-23,4
348,223	-22,57
348,48	-22,56
348,736	-20,81
348,992	-21,8
349,248	-18,44
349,504	-19,13
349,761	-19,72
350,017	-18,72
350,273	-18,81
350,529	-19,14
350,785	-19,29
351,041	-18,83
351,297	-16,18
351,554	-17,79
351,81	-21,08
352,066	-21,89
352,322	-20,2
352,578	-19,63
352,834	-20,59
353,09	-19,95
353,346	-20,25
353,602	-21,99
353,858	-22,96
354,114	-24,53
354,369	-23,47
354,625	-20,26
354,881	-21,46
355,137	-17,64
355,393	-17,64
355,649	-16,79
355,905	-13,61
356,16	-14,73
356,416	-15,24
356,672	-22,54
356,928	-21,03
357,183	-21,95
357,439	-22,2
357,695	-23,6
357,951	-20,16
358,206	-20,67
358,462	-20,66
358,718	-22,1
358,973	-20,93
359,229	-20,83
359,484	-19,09
359,74	-15,42
359,996	-15,19
360,251	-12,18
360,507	-11,4
360,762	-11,4
361,018	-9,45
361,273	-11,09
361,529	-9,63
361,784	-9,41
362,04	-7,96
362,295	-8,15
362,55	-8,3
362,806	-7,26
363,061	-6,71
363,316	-5,72
363,572	-5,87
363,827	-4,32
364,082	-6,78
364,338	-6,4
364,593	-5,7
364,848	-6,22
365,104	-7,05
365,359	-4,73
365,614	-4,04
365,869	-5,42
366,124	-4,75
366,38	-7,65
366,635	-6,01
366,89	-5,6
367,145	-6,79
367,4	-4,41
367,655	-4,54
367,91	-4
368,165	-6,23
368,42	-9,6
368,675	-8,33
368,93	-8,72
369,185	-9,03
369,44	-8,05
369,695	-6,2
369,95	-6,58
370,205	-7,55
370,46	-8,67
370,715	-8,58
370,97	-8,18
371,225	-8,71
371,48	-6,87
371,734	-5,8
371,989	-4,14
372,244	-4,56
372,499	-3,35
372,754	-3,56
373,008	-5,41
373,263	-8,97
373,518	-6,37
373,773	-8,33
374,027	-9,36
374,282	-6,28
374,537	-6,8
374,791	-6,06
375,046	-7,21
375,301	-8,37
375,555	-10,83
375,81	-9,1
376,064	-8,75
376,319	-5,37
376,573	-6,62
376,828	-8,5
377,082	-5,66
377,337	-7,3
377,591	-9,85
377,846	-8,41
378,1	-5,05
378,355	-4,19
378,609	-5,23
378,863	-8,3
379,118	-6,48
379,372	-8,68
379,627	-11,98
379,881	-13,75
380,135	-14,28
380,389	-14,62
380,644	-14,27
380,898	-13,24
381,152	-12,87
381,407	-14,39
381,661	-12,29
381,915	-10,69
382,169	-11,43
382,423	-10,94
382,677	-14,73
382,932	-13,81
383,186	-13,59
383,44	-11,49
383,694	-9,77
383,948	-10,63
384,202	-11,18
384,456	-7,7
384,71	-6,54
384,964	-6,31
385,218	-4,03
385,472	-3,07
385,726	-4,66
385,98	-6,24
386,234	-7
386,488	-10,74
386,742	-8,86
386,996	-11,38
387,249	-10,58
387,503	-8,53
387,757	-6,6
388,011	-5,05
388,265	-3,87
388,518	-2,94
388,772	-1,59
389,026	-0,19
389,28	-1,61
389,533	-2,74
389,787	-2,34
390,041	-4,25
390,295	-4,38
390,548	-3,27
390,802	-0,66
391,055	0,54
391,309	-1,23
391,563	-4,26
391,816	-3,56
392,07	-3,85
392,323	-3,87
392,577	-2,74
392,83	-2,57
393,084	2,24
393,337	6,4
393,591	7,76
393,844	8,95
394,098	12,83
394,351	18,31
394,604	20,14
394,858	22,64
395,111	22,31
395,364	21,12
395,618	22,51
395,871	19,98
396,124	18,68
396,378	17,1
396,631	17,43
396,884	15,17
397,137	14,69
397,391	15,55
397,644	12,92
397,897	13,87
398,15	15,32
398,403	18,85
398,657	18,14
398,91	15,81
399,163	17,63
399,416	17,4
399,669	16,1
399,922	13,66
400,175	11,36
400,428	9,17
400,681	9,63
400,934	5,36
401,187	4,2
401,44	3,7
401,693	1,42
401,946	-2,64
402,199	-9,11
402,452	-10,99
402,704	-14,55
402,957	-14,83
403,21	-13,76
403,463	-14,63
403,716	-13,61
403,969	-11,82
404,221	-11,11
404,474	-9,91
404,727	-6,46
404,98	-3,71
405,232	-4,36
405,485	-2,76
405,738	-0,55
405,99	-0,02
406,243	1,62
406,496	2,91
406,748	3,35
407,001	1,91
407,253	3,71
407,506	3,72
407,759	5,96
408,011	4,29
408,264	5,59
408,516	5,4
408,769	3,28
409,021	3,78
409,274	3,75
409,526	6,04
409,778	5,36
410,031	11,07
410,283	11,03
410,536	15,85
410,788	14,73
411,04	14,8
411,293	16,61
411,545	19,28
411,797	17,63
412,049	16,73
412,302	17,55
412,554	18,73
412,806	16,2
413,058	15,25
413,311	17,62
413,563	15,61
413,815	14,69
414,067	9,95
414,319	8,92
414,571	9,36
414,823	7,77
415,075	6,1
415,328	6,48
415,58	9,05
415,832	11,47
416,084	12,49
416,336	10,9
416,588	14,14
416,84	12,15
417,091	14,38
417,343	11,42
417,595	14,85
417,847	14,85
418,099	16,16
418,351	15,21
418,603	19,28
418,855	18,34
419,106	17,87
419,358	16,24
419,61	16,78
419,862	17,8
420,114	15,59
420,365	15,17
420,617	16,41
420,869	15,17
421,12	13,17
421,372	15,55
421,624	14,48
421,875	15,14
422,127	12,64
422,379	13,52
422,63	15,15
422,882	14,94
423,133	14,56
423,385	14,3
423,636	13,85
423,888	14,72
424,139	16,94
424,391	14,66
424,642	12,38
424,894	11,09
425,145	11,58
425,396	8,34
425,648	11,13
425,899	9,18
426,151	8,42
426,402	6,11
426,653	6,93
426,905	4,97
427,156	2,67
427,407	1,85
427,658	0,52
427,91	-1,49
428,161	-3,55
428,412	-1,27
428,663	0,44
428,914	1,34
429,166	1,3
429,417	1,35
429,668	0,32
429,919	-2,45
430,17	-3,73
430,421	-2,28
430,672	-0,45
430,923	1,2
431,174	-0,44
431,425	-0,8
431,676	-0,9
431,927	-4,45
432,178	-3,33
432,429	-2,53
432,68	-3,47
432,931	-0,16
433,182	3,3
433,433	0,44
433,683	2,15
433,934	1,55
434,185	0,34
434,436	-1,05
434,687	1,06
434,937	3,47
435,188	2,39
435,439	2,03
435,69	4,07
435,94	4,29
436,191	3,94
436,442	4,54
436,692	2,51
436,943	0,27
437,194	-0,08
437,444	2,89
437,695	8,08
437,945	7,84
438,196	6,1
438,447	4,85
438,697	4,58
438,948	3,9
439,198	2,3
439,449	-1,9
439,699	0,2
439,949	-0,43
440,2	-0,54
440,45	1,88
440,701	-0,94
440,951	-3,33
441,201	-2,35
441,452	-3,83
441,702	-3,91
441,952	-3,14
442,203	-3,87
442,453	-6,93
442,703	-5,8
442,953	-4,86
443,204	-2,18
443,454	-3,77
443,704	-3,86
443,954	-6,9
444,204	-6,57
444,455	-4,04
444,705	-1,89
444,955	-1,81
445,205	-2,87
445,455	-6,79
445,705	-5,6
445,955	-5,46
446,205	-4,73
446,455	-4,85
446,705	-3,45
446,955	-1,1
447,205	0,01
447,455	1,26
447,705	0,07
447,955	0,09
448,205	-0,04
448,454	-0,03
448,704	2,46
448,954	1,23
449,204	2,97
449,454	3,19
449,704	3,09
449,953	4,4
450,203	8,06
450,453	6,07
450,703	9,26
450,952	7,42
451,202	8,96
451,452	9,19
451,701	13,11
451,951	15,72
452,201	15,72
452,45	15,14
452,7	17,05
452,949	17,78
453,199	18,9
453,448	20,75
453,698	22,31
453,947	20,91
454,197	20,84
454,446	21
454,696	22,95
454,945	24,28
455,195	24,45
455,444	26,5
455,693	30,72
455,943	28,99
456,192	31,88
456,442	32,6
456,691	33,07
456,94	31,22
457,189	30,26
457,439	32,88
457,688	34,83
457,937	34,89
458,186	36,85
458,436	37,33
458,685	38,66
458,934	38,06
459,183	37,86
459,432	39,61
459,681	41,04
459,93	40,5
460,179	39,27
460,429	37,69
460,678	40,03
460,927	43,12
461,176	42,5
461,425	42,11
461,674	45,68
461,923	45,59
462,172	44,6
462,42	44,4
462,669	46,19
462,918	45,62
463,167	45,8
463,416	42,55
463,665	44,06
463,914	44,49
464,162	43,2
464,411	43,4
464,66	46,53
464,909	46,94
465,158	46,3
465,406	46,05
465,655	48,73
465,904	49,16
466,152	48,27
466,401	48,3
466,65	50,49
466,898	49,64
467,147	45,72
467,395	43,22
467,644	46,72
467,893	47,16
468,141	47,2
468,39	45,52
468,638	43,28
468,887	41,89
469,135	41,88
469,384	42,12
469,632	43,36
469,88	44,5
470,129	44,79
470,377	42,48
470,626	46,02
470,874	47,78
471,122	49,12
471,371	48,86
471,619	47,17
471,867	49,18
472,115	50,4
472,364	47,68
472,612	51,79
472,86	50,54
473,108	51,09
473,356	49,85
473,605	50,16
473,853	48,53
474,101	48,11
474,349	47,78
474,597	50,77
474,845	49,82
475,093	50,04
475,341	46,47
475,589	47,53
475,837	47,78
476,085	48,53
476,333	47,26
476,581	48,36
476,829	48,72
477,077	50,43
477,325	50,29
477,573	49,93
477,821	49,15
478,069	51,13
478,317	49,04
478,564	50,55
478,812	48,25
479,06	45,93
479,308	44,03
479,555	43,91
479,803	41,54
480,051	43,1
480,299	41,14
480,546	42,62
480,794	40,47
481,042	40,79
481,289	39,82
481,537	39,75
481,784	40,29
482,032	42,7
482,28	42,02
482,527	43,71
482,775	43,63
483,022	44,51
483,27	45,96
483,517	49,64
483,765	48,18
484,012	48,75
484,259	47,2
484,507	48,88
484,754	49,72
485,002	49,38
485,249	49,03
485,496	50,86
485,744	49,94
485,991	49,66
486,238	48,08
486,486	51,93
486,733	53,01
486,98	56,7
487,227	55,77
487,474	58,7
487,722	61,87
487,969	59,89
488,216	58,26
488,463	58,6
488,71	55,8
488,957	56,03
489,204	57,38
489,451	57,57
489,699	55,55
489,946	52,69
490,193	51,59
490,44	51,65
490,687	53,61
490,934	51,12
491,18	48,94
491,427	51,47
491,674	54,39
491,921	55,66
492,168	55,88
492,415	52,42
492,662	54,65
492,909	57,7
493,155	58,29
493,402	57,53
493,649	56,75
493,896	58
494,142	54,47
494,389	56,21
494,636	53,96
494,883	52,42
495,129	50,81
495,376	47,99
495,623	51,13
495,869	53,81
496,116	56,19
496,362	59,68
496,609	62,04
496,855	67,07
497,102	67,46
497,348	68,22
497,595	69,51
497,841	73,49
498,088	72,5
498,334	71,03
498,581	71,1
498,827	70,76
499,074	71,04
499,32	73,51
499,566	76,8
499,813	77,54
500,059	76,28
500,305	76,08
500,552	74,49
500,798	74,03
501,044	77,95
501,29	77,14
501,537	74,2
501,783	78,31
502,029	80,15
502,275	79,17
502,521	78,68
502,767	80,12
503,013	83,34
503,26	80,85
503,506	79,5
503,752	81,37
503,998	79,2
504,244	79,17
504,49	75,85
504,736	77,07
504,982	76,23
505,228	80,46
505,474	81,1
505,72	82,27
505,966	83,73
506,211	87,08
506,457	88,73
506,703	85,55
506,949	84,09
507,195	82,63
507,441	79,39
507,686	83,68
507,932	83,64
508,178	86,13
508,424	83,68
508,669	82,74
508,915	84,36
509,161	88,11
509,406	88,13
509,652	89,16
509,898	92,59
510,143	93,79
510,389	94,19
510,634	90,86
510,88	95,01
511,125	96,59
511,371	96,92
511,616	98,7
511,862	96,24
512,107	94,02
512,353	95,35
512,598	97,3
512,844	94,49
513,089	92,07
513,335	93,86
513,58	93,34
513,825	92,9
514,071	93,5
514,316	95,1
514,561	95,47
514,806	94,8
515,052	96,98
515,297	95,73
515,542	97,86
515,787	98,93
516,033	101,72
516,278	101,62
516,523	100,98
516,768	99,8
517,013	97,95
517,258	96,65
517,503	96,46
517,748	97,79
517,993	96,41
518,238	97,71
518,483	95,51
518,728	95,39
518,973	93,34
519,218	92,25
519,463	93,7
519,708	95,4
519,953	94,84
520,198	93,64
520,443	96,37
520,688	100,63
520,933	101,09
521,177	101,02
521,422	100,4
521,667	102,45
521,912	102,89
522,157	98,98
522,401	102,32
522,646	103,23
522,891	103,29
523,135	102,93
523,38	102,64
523,625	100,18
523,869	102,48
524,114	104,85
524,358	102,88
524,603	103,65
524,848	102,59
525,092	102,02
525,337	102,74
525,581	104,84
525,826	107,53
526,07	108,77
526,315	110,11
526,559	109,03
526,803	108,54
527,048	112,77
527,292	111,12
527,537	111,64
527,781	112,07
528,025	110,28
528,269	110,23
528,514	109,81
528,758	108,61
529,002	108,69
529,247	111,05
529,491	110,13
529,735	115,88
529,979	115,53
530,223	115,42
530,467	112,5
530,712	110,79
530,956	109,14
531,2	111,92
531,444	109
531,688	110,1
531,932	110,51
532,176	112,36
532,42	114,14
532,664	115,79
532,908	114,56
533,152	112,66
533,396	110,08
533,64	108,82
533,884	105,21
534,128	106,68
534,371	107,52
534,615	106,66
534,859	107,53
535,103	106,55
535,347	106,77
535,59	108,08
535,834	104,39
536,078	104,61
536,322	106,99
536,565	109,61
536,809	107,11
537,053	109,03
537,296	107,37
537,54	106,7
537,784	107,08
538,027	109,82
538,271	108,99
538,514	108,01
538,758	108,08
539,001	106,63
539,245	105,71
539,488	106,77
539,732	106,79
539,975	105,17
540,219	107,01
540,462	106,8
540,706	109,6
540,949	109,72
541,192	109,3
541,436	114,46
541,679	117,57
541,922	118,13
542,166	114,23
542,409	113,99
542,652	114,56
542,895	116,86
543,139	117,46
543,382	122,66
543,625	122,29
543,868	120,53
544,111	118,18
544,354	117,24
544,598	115,52
544,841	116,58
545,084	116,01
545,327	114,74
545,57	115,75
545,813	117,26
546,056	117,66
546,299	116,99
546,542	119,14
546,785	121,49
547,028	122,75
547,271	122,33
547,514	124,27
547,756	121,03
547,999	122
548,242	122,32
548,485	120,92
548,728	122,28
548,971	118,61
549,213	118,95
549,456	119,51
549,699	120,71
549,942	121,9
550,184	121,45
550,427	119,48
550,67	118,39
550,912	112,61
551,155	114,21
551,398	114,24
551,64	113,81
551,883	114,36
552,125	114,84
552,368	114,23
552,61	110,73
552,853	112,92
553,095	112,14
553,338	112,04
553,58	112,86
553,823	112,91
554,065	116,07
554,308	112,43
554,55	109,33
554,792	107,09
555,035	105,12
555,277	103,35
555,519	103,75
555,762	101,78
556,004	102,16
556,246	98,35
556,488	99,28
556,731	96,44
556,973	97,38
557,215	95,77
557,457	96,26
557,699	97,96
557,941	95,46
558,183	95,44
558,426	99,82
558,668	97,03
558,91	98,23
559,152	98,42
559,394	97,44
559,636	99,76
559,878	100,3
560,12	100,33
560,362	103
560,604	102,35
560,845	102,03
561,087	100,27
561,329	102,55
561,571	99,22
561,813	99,32
562,055	99,48
562,297	100,09
562,538	101,22
562,78	104,83
563,022	103,66
563,264	105,07
563,505	106,31
563,747	107,23
563,989	105,74
564,23	105,52
564,472	104,34
564,714	108,43
564,955	108,51
565,197	106,12
565,438	110,2
565,68	112,91
565,921	109,09
566,163	111,11
566,404	109,8
566,646	113,88
566,887	115,32
567,129	115,78
567,37	114,2
567,612	117,2
567,853	112,05
568,094	113,71
568,336	113,79
568,577	115,22
568,818	114,95
569,06	114,21
569,301	113,04
569,542	114,13
569,783	116,11
570,025	115,61
570,266	116,44
570,507	117,26
570,748	116,02
570,989	116,52
571,23	120,52
571,472	121,1
571,713	120,18
571,954	120,59
572,195	118,27
572,436	119,89
572,677	122,41
572,918	123,11
573,159	121,12
573,4	120,73
573,641	119,68
573,882	121,46
574,123	117,73
574,364	112,71
574,604	111,57
574,845	109,5
575,086	110,62
575,327	111,85
575,568	109,97
575,809	108,65
576,049	107,97
576,29	104,48
576,531	109,4
576,771	113,19
577,012	115,85
577,253	117,27
577,494	117,27
577,734	115,74
577,975	116,61
578,215	116,89
578,456	115,63
578,697	113,89
578,937	114,5
579,178	113,99
579,418	111,72
579,659	110,67
579,899	107,25
580,14	105,52
580,38	103,78
580,62	102,98
580,861	105,88
581,101	105,76
581,342	105,56
581,582	101,2
581,822	104,04
582,063	103,05
582,303	105,86
582,543	103,7
582,783	104,91
583,024	107,95
583,264	111,95
583,504	109,67
583,744	112,06
583,984	108,34
584,224	108,1
584,465	104,41
584,705	102,5
584,945	102,24
585,185	102,45
585,425	101,52
585,665	101,65
585,905	101,13
586,145	101,86
586,385	100,56
586,625	103,36
586,865	103,95
587,105	103,79
587,345	104,4
587,585	104,74
587,824	103,27
588,064	104,15
588,304	100,09
588,544	98,91
588,784	95,81
589,024	99,11
589,263	97,94
589,503	96,15
589,743	96,41
589,982	95,91
590,222	95,23
590,462	91,13
590,701	87,83
590,941	91,57
591,181	90,04
591,42	89,17
591,66	90,78
591,899	94,5
592,139	94,51
592,378	95,58
592,618	94,35
592,857	93,79
593,097	92,47
593,336	92,45
593,576	89,84
593,815	90,65
594,055	89,38
594,294	89,64
594,533	89,74
594,773	89,71
595,012	90,04
595,251	90,22
595,491	92,35
595,73	96,38
595,969	98,27
596,208	100,12
596,447	104,29
596,687	106,3
596,926	107,93
597,165	105,21
597,404	106,16
597,643	103,48
597,882	102,44
598,121	103,29
598,36	103,78
598,599	104,94
598,838	105,47
599,077	100,45
599,316	99,97
599,555	98,12
599,794	97,28
600,033	99,7
600,272	101,13
600,511	100,59
600,75	101,69
600,989	103,67
601,228	103,87
601,466	102,21
601,705	101,92
601,944	102,16
602,183	103,9
602,422	102,72
602,66	101,3
602,899	100,4
603,138	99,97
603,376	98,85
603,615	97,9
603,854	95,9
604,092	94,72
604,331	95,66
604,569	96,31
604,808	96,8
605,047	99,62
605,285	100,62
605,524	99,6
605,762	96,5
606	96,91
606,239	96,78
606,477	96,48
606,716	93,02
606,954	93,75
607,193	91,49
607,431	86,35
607,669	83,75
607,908	81,95
608,146	84,72
608,384	84,38
608,622	83,42
608,861	83,7
609,099	82,61
609,337	81,46
609,575	80,43
609,813	81,82
610,052	81,12
610,29	75,37
610,528	72,96
610,766	71,38
611,004	71,77
611,242	69,21
611,48	68,93
611,718	65,16
611,956	65,75
612,194	63,03
612,432	61,44
612,67	59,72
612,908	61,29
613,146	58,75
613,384	57,15
613,621	55,77
613,859	58,03
614,097	57,67
614,335	56,55
614,573	58,2
614,811	60,65
615,048	59,48
615,286	59,48
615,524	55,81
615,761	52,91
615,999	53,54
616,237	53,19
616,474	54,49
616,712	56,5
616,95	54,82
617,187	53,85
617,425	55,62
617,662	57,73
617,9	55,69
618,137	55,43
618,375	54,39
618,612	52,97
618,85	55,2
619,087	58,59
619,325	57,33
619,562	55,71
619,799	55,6
620,037	56,6
620,274	54,6
620,511	56,53
620,749	54,67
620,986	53,27
621,223	50,53
621,461	49,91
621,698	51,45
621,935	48,32
622,172	45,9
622,409	48,7
622,647	50,54
622,884	48,81
623,121	50,78
623,358	48,68
623,595	48,04
623,832	48,53
624,069	46,24
624,306	47,57
624,543	47,93
624,78	48,34
625,017	48,66
625,254	51,26
625,491	51,76
625,728	53,01
625,965	53,96
626,202	51,95
626,438	48,85
626,675	48,61
626,912	51,39
627,149	51,28
627,386	50,18
627,622	48,97
627,859	48,48
628,096	48,61
628,333	48,46
628,569	49,33
628,806	51,11
629,043	50,12
629,279	52,45
629,516	54,12
629,752	49,99
629,989	49,56
630,225	47,63
630,462	46,76
630,699	46,37
630,935	46,11
631,171	43,67
631,408	43,93
631,644	40,97
631,881	38,36
632,117	36,14
632,354	35,98
632,59	35,28
632,826	35,2
633,063	34,74
633,299	34,71
633,535	32,29
633,771	32,7
634,008	34,96
634,244	33,45
634,48	32,44
634,716	34,34
634,953	33,8
635,189	34,68
635,425	35,89
635,661	38,52
635,897	36,63
636,133	37,16
636,369	34,98
636,605	31,05
636,841	31,4
637,077	33,5
637,313	32,9
637,549	33,76
637,785	32,57
638,021	32,84
638,257	31,94
638,493	33
638,729	29,71
638,965	33,91
639,2	35,36
639,436	34,11
639,672	33,83
639,908	29,85
640,144	33,29
640,379	35,2
640,615	32,93
640,851	36,39
641,086	37,37
641,322	34,5
641,558	36,29
641,793	37,56
642,029	35,12
642,264	33,4
642,5	32,08
642,736	29,12
642,971	30,38
643,207	28,34
643,442	24,76
643,678	26,85
643,913	28,55
644,148	26,96
644,384	28,28
644,619	28,04
644,855	29,46
645,09	30,17
645,325	31,43
645,561	31,32
645,796	28,68
646,031	33,73
646,266	29,59
646,502	28,29
646,737	31,43
646,972	30,19
647,207	31,84
647,442	28,17
647,678	24,46
647,913	27,14
648,148	26,77
648,383	25,47
648,618	26,71
648,853	26,69
649,088	27,48
649,323	30,46
649,558	32,98
649,793	33,72
650,028	35,55
650,263	30,84
650,498	34,59
650,733	34,72
650,968	32,16
651,202	34,44
651,437	31,91
651,672	28,2
651,907	28,04
652,142	28,72
652,376	29,75
652,611	28,93
652,846	30,38
653,081	31,64
653,315	29,04
653,55	29,35
653,785	28,57
654,019	29,35
654,254	28,91
654,488	30,57
654,723	28,52
654,958	27,59
655,192	26,33
655,427	22,74
655,661	24,64
655,896	25,84
656,13	27,51
656,364	24,06
656,599	20,59
656,833	28,5
657,068	30,97
657,302	29,66
657,536	28,76
657,771	30,21
658,005	31,39
658,239	33,2
658,474	30,27
658,708	31,93
658,942	32,88
659,176	31,75
659,41	29,17
659,645	28,2
659,879	27,97
660,113	24,3
660,347	23,24
660,581	21,48
660,815	21,55
661,049	20,66
661,283	15,66
661,517	15,02
661,751	13,05
661,985	12,23
662,219	14,19
662,453	13,08
662,687	15,28
662,921	12,33
663,155	12,24
663,389	4,72
663,622	3,4
663,856	5,6
664,09	-3,56
664,324	-4
664,558	-4,51
664,791	-5,71
665,025	-7,73
665,259	-8
665,492	-9,65
665,726	-7,16
665,96	-7,33
666,193	-8,54
666,427	-8,2
666,661	-8,43
666,894	-9,05
667,128	-9,37
667,361	-6,63
667,595	-6,65
667,828	-6,81
668,062	-6,5
668,295	-5,58
668,529	-2,24
668,762	-1,39
668,995	-1,56
669,229	2,14
669,462	2,12
669,695	3,97
669,929	1,85
670,162	2,81
670,395	0,99
670,629	3,79
670,862	6,39
671,095	2,42
671,328	3,16
671,561	-1,32
671,795	0,79
672,028	2,35
672,261	3,69
672,494	4,46
672,727	4,02
672,96	5,04
673,193	4,39
673,426	8,22
673,659	8,72
673,892	8,95
674,125	8,1
674,358	7,04
674,591	6,53
674,824	6,07
675,057	6,37
675,29	4,3
675,523	6,03
675,755	3,04
675,988	2,51
676,221	6,13
676,454	4,27
676,687	4,76
676,919	3,75
677,152	5,05
677,385	3,78
677,617	3,75
677,85	3,71
678,083	2,01
678,315	6,64
678,548	6,13
678,78	6,46
679,013	6,13
679,246	8,34
679,478	9,08
679,711	7,82
679,943	10,06
680,175	5,97
680,408	10,12
680,64	5,23
680,873	6,1
681,105	6,48
681,338	9,69
681,57	9,56
681,802	9,78
682,034	9,26
682,267	12,2
682,499	14,05
682,731	11,1
682,964	11,15
683,196	9,79
683,428	6,94
683,66	5,65
683,892	8,37
684,124	9,26
684,356	11,22
684,589	10,23
684,821	8,22
685,053	9,52
685,285	10,22
685,517	9,14
685,749	8,62
685,981	9,75
686,213	8,62
686,445	8,07
686,676	4,52
686,908	3,85
687,14	1,37
687,372	3,12
687,604	0,06
687,836	2,17
688,068	2,67
688,299	2,51
688,531	0,08
688,763	4,2
688,995	3,8
689,226	7,67
689,458	4,78
689,69	4,02
689,921	3,14
690,153	3,51
690,384	5
690,616	3,9
690,848	3,69
691,079	0,86
691,311	-2,11
691,542	-3,91
691,774	-4,8
692,005	-1,75
692,237	1,01
692,468	0
692,699	1,06
692,931	1,11
693,162	-0,94
693,393	-1,38
693,625	-2,78
693,856	-0,41
694,087	1,08
694,319	3,51
694,55	3,42
694,781	2,01
695,012	1,74
695,243	-1,19
695,475	-1,63
695,706	-1,82
695,937	-2,45
696,168	-3,86
696,399	-6,39
696,63	-6,28
696,861	-6,19
697,092	0,1
697,323	3,42
697,554	4,79
697,785	5,45
698,016	8,58
698,247	6,29
698,478	8,77
698,709	9
698,94	11,77
699,171	11,45
699,401	7,5
699,632	9,06
699,863	3,67
700,094	3,63
700,325	6,45
700,555	7,23
700,786	9,26
701,017	9,56
701,247	7,99
701,478	7,82
701,709	8,59
701,939	9,02
702,17	11,21
702,401	14,23
702,631	15,51
702,862	13,37
703,092	9,63
703,323	12,11
703,553	13,44
703,784	13,26
704,014	13,57
704,244	6,68
704,475	6,17
704,705	5,43
704,936	4,67
705,166	2,46
705,396	5,66
705,627	5,48
705,857	5,07
706,087	6,4
706,317	5,34
706,548	4,12
706,778	3,02
707,008	5,68
707,238	6,62
707,468	4,89
707,698	3,23
707,928	2,29
708,158	-0,25
708,389	-0,77
708,619	-2,75
708,849	-5,34
709,079	-4,82
709,309	-7,61
709,539	-10,48
709,768	-12,13
709,998	-7,9
710,228	-7,41
710,458	-8,43
710,688	-11,2
710,918	-10,18
711,148	-12,86
711,378	-11,75
711,607	-14,79
711,837	-13,35
712,067	-13,09
712,297	-13,15
712,526	-14,73
712,756	-14,05
712,986	-16,31
713,215	-18,32
713,445	-18,08
713,674	-16,68
713,904	-18,05
714,134	-14,81
714,363	-16,14
714,593	-16,53
714,822	-16,53
715,052	-18,01
715,281	-16,45
715,511	-17,04
715,74	-17,41
715,969	-16,16
716,199	-17,14
716,428	-16,22
716,657	-16,7
716,887	-13,98
717,116	-17,16
717,345	-15,86
717,575	-17,03
717,804	-15,97
718,033	-18,43
718,262	-18,4
718,492	-16,73
718,721	-15,28
718,95	-16,57
719,179	-17,6
719,408	-17,02
719,637	-20,65
719,866	-22,37
720,095	-20,82
720,324	-22,54
720,553	-26,79
720,782	-28,9
721,011	-27,71
721,24	-30,23
721,469	-31,39
721,698	-30,6
721,927	-30,23
722,156	-31,05
722,385	-33,18
722,613	-28,71
722,842	-27,24
723,071	-25,05
723,3	-23,78
723,529	-25
723,757	-22,39
723,986	-25,73
724,215	-26,84
724,443	-25,5
724,672	-22,23
724,901	-21,7
725,129	-19,61
725,358	-15,45
725,586	-19,01
725,815	-19,06
726,043	-19,84
726,272	-20,08
726,5	-20,6
726,729	-18,66
726,957	-22,23
727,186	-23,63
727,414	-20,87
727,642	-18,75
727,871	-16,8
728,099	-16,77
728,327	-17,64
728,556	-14,4
728,784	-14,73
729,012	-16,73
729,241	-14,06
729,469	-14,75
729,697	-18,58
729,925	-18
730,153	-19,87
730,381	-19,57
730,61	-17,89
730,838	-21,94
731,066	-19,81
731,294	-18,08
731,522	-21,76
731,75	-25,77
731,978	-26,33
732,206	-26,17
732,434	-27,48
732,662	-25,24
732,89	-28,02
733,118	-29,12
733,346	-30,15
733,573	-29,72
733,801	-28,77
734,029	-20,56
734,257	-18,81
734,485	-17,14
734,712	-14,8
734,94	-17,41
735,168	-14,31
735,396	-13,63
735,623	-16,39
735,851	-14,5
736,078	-11,83
736,306	-10,95
736,534	-10,67
736,761	-9,5
736,989	-13,08
737,216	-13,5
737,444	-15,32
737,671	-14,31
737,899	-8,93
738,126	-10,59
738,354	-9,65
738,581	-9,06
738,809	-7,15
739,036	-8,27
739,263	-7,75
739,491	-9,97
739,718	-9,98
739,945	-2,91
740,173	-0,46
740,4	1,61
740,627	0,26
740,854	0
741,081	-2,71
741,309	-5,18
741,536	-9,44
741,763	-10,71
741,99	-8,18
742,217	-10,06
742,444	-10,53
742,671	-9,1
742,898	-9,31
743,125	-11,19
743,352	-14,61
743,579	-13,95
743,806	-15,04
744,033	-10,56
744,26	-9,9
744,487	-10,27
744,714	-11,79
744,941	-12,8
745,167	-9,06
745,394	-10,87
745,621	-10,74
745,848	-10,41
746,075	-9,02
746,301	-6,49
746,528	-2,11
746,755	-3,69
746,981	-6,88
747,208	-6,67
747,435	-5,46
747,661	-5,43
747,888	-4,51
748,114	-8,36
748,341	-6
748,567	-3,99
748,794	-6,14
749,02	-6,19
749,247	-8
749,473	-8,48
749,7	-7,69
749,926	-9,4
750,152	-5,63
750,379	-5
750,605	-3,88
750,831	-5,29
751,058	-7,14
751,284	-8,55
751,51	-6,27
751,737	-4,52
751,963	-5,83
752,189	-7,78
752,415	-8,8
752,641	-9,06
752,867	-10,3
753,094	-11,39
753,32	-13,36
753,546	-15,15
753,772	-13,45
753,998	-14,32
754,224	-14,31
754,45	-15,84
754,676	-16,04
754,902	-16,64
755,128	-15,24
755,354	-15,99
755,579	-14,65
755,805	-12,8
756,031	-15,64
756,257	-15,91
756,483	-17,28
756,709	-19,8
756,934	-19,28
757,16	-21,69
757,386	-20,87
757,612	-23,82
757,837	-24,02
758,063	-21,9
758,289	-18,68
758,514	-21,54
758,74	-26,06
758,965	-29,12
759,191	-27,78
759,416	-26,95
759,642	-25,97
759,868	-25,76
760,093	-25,14
760,318	-26,43
760,544	-27,35
760,769	-28,59
760,995	-28,67
761,22	-29,71
761,445	-27,48
761,671	-25,11
761,896	-21,98
762,121	-21,53
762,347	-21,61
762,572	-24,32
762,797	-23,68
763,022	-23,37
763,248	-19,15
763,473	-16,95
763,698	-17,79
763,923	-17,08
764,148	-17,45
764,373	-18,08
764,598	-16,52
764,823	-14,15
765,048	-17,28
765,273	-20,73
765,498	-20,65
765,723	-19,28
765,948	-17,66
766,173	-19,14
766,398	-18
766,623	-19,82
766,848	-19,84
767,073	-20,33
767,298	-20,32
767,522	-20,36
767,747	-17,28
767,972	-17,3
768,197	-16,25
768,421	-19,39
768,646	-21,98
768,871	-25,73
769,095	-25,94
769,32	-24,56
769,545	-24,25
769,769	-23,62
769,994	-20,86
770,218	-23,41
770,443	-22,25
770,667	-20,09
770,892	-19,57
771,116	-20,39
771,341	-18,01
771,565	-17,79
771,79	-16,91
772,014	-17,73
772,238	-19,77
772,463	-17,3
772,687	-16,26
772,911	-17,22
773,136	-19,56
773,36	-18,53
773,584	-16,35
773,808	-19,4
774,033	-18,89
774,257	-19,2
774,481	-19,62
774,705	-22,22
774,929	-22,99
775,153	-24,4
775,377	-22,2
775,602	-22,01
775,826	-21,27
776,05	-19,55
776,274	-20,53
776,498	-21,71
776,722	-22,83
776,945	-21,86
777,169	-21,81
777,393	-23,25
777,617	-23,79
777,841	-23,15
778,065	-22,44
778,289	-24,35
778,512	-25,37
778,736	-26,28
778,96	-25,45
779,184	-22,07
779,407	-23,35
779,631	-23,5
779,855	-24,35
780,078	-22,58
780,302	-24,86
780,526	-27,33
780,749	-25,61
780,973	-24,29
781,196	-23,39
781,42	-25,43
781,643	-24,88
781,867	-22,99
782,09	-25,55
782,314	-26,23
782,537	-26,72
782,76	-27,55
782,984	-27,35
783,207	-28,4
783,431	-27,53
783,654	-29,13
783,877	-31,82
784,1	-33,1
784,324	-33,9
784,547	-34,63
784,77	-39,01
784,993	-40,22
785,216	-41,65
785,44	-42,37
785,663	-43,71
785,886	-41,17
786,109	-41,36
786,332	-42,82
786,555	-42,12
786,778	-39,31
787,001	-39,54
787,224	-37,31
787,447	-35,85
787,67	-34,01
787,893	-33,83
788,116	-33,46
788,339	-32,03
788,561	-32,23
788,784	-35,76
789,007	-34,76
789,23	-35,53
789,453	-35,28
789,675	-36,37
789,898	-37,49
790,121	-39
790,344	-39,42
790,566	-38,03
790,789	-37,48
791,012	-36,82
791,234	-34,25
791,457	-29,7
791,679	-28,09
791,902	-26,49
792,124	-27,04
792,347	-26,54
792,569	-26,79
792,792	-30,81
793,014	-27,71
793,237	-23,31
793,459	-23,13
793,681	-23,63
793,904	-23,99
794,126	-25,84
794,348	-25,98
794,571	-24,35
794,793	-25,97
795,015	-25,86
795,237	-25,84
795,46	-25,52
795,682	-25,63
795,904	-23,48
796,126	-25,72
796,348	-26,35
796,57	-22,27
796,792	-22,37
797,014	-18,37
797,237	-15,73
797,459	-14,01
797,681	-13,24
797,903	-15,88
798,124	-15,78
798,346	-5,25
798,568	-4,79
798,79	-1,78
799,012	0,76
799,234	0,68
799,456	2,75
799,678	4,57
799,899	1,05
800,121	-2,84
800,343	-3,42
800,565	-2,58
800,786	-1,56
801,008	0,25
801,23	-0,44
801,451	-1,09
801,673	-3,47
801,895	-4,66
802,116	-3,72
802,338	-2,76
802,559	-1,5
802,781	-3,18
803,002	-0,13
803,224	2,05
803,445	-1,45
803,667	-0,83
803,888	-2,74
804,109	-3,14
804,331	-4,67
804,552	-4,05
804,773	-1,38
804,995	-4,88
805,216	-19,7
805,437	-21,18
805,658	-25,61
805,88	-27,05
806,101	-25,03
806,322	-26,01
806,543	-26,43
806,764	-28,71
806,985	-25,73
807,207	-24,89
807,428	-24,85
807,649	-28,39
807,87	-29,93
808,091	-28,68
808,312	-28,4
808,533	-22,24
808,754	-20,75
808,975	-21,55
809,195	-19,31
809,416	-18,93
809,637	-19,79
809,858	-21,46
810,079	-22,88
810,3	-20,51
810,52	-19,75
810,741	-21,62
810,962	-23,7
811,183	-24,12
811,403	-24,28
811,624	-23,84
811,845	-23,47
812,065	-21,3
812,286	-18,84
812,506	-17,04
812,727	-15,61
812,948	-15,09
813,168	-12,24
813,389	-13,49
813,609	-11,77
813,83	-13,37
814,05	-14,93
814,27	-15,09
814,491	-10,28
814,711	-10,56
814,931	-13,17
815,152	-13,25
815,372	-15,16
815,592	-16,11
815,813	-16,6
816,033	-18,75
816,253	-18,03
816,473	-18,11
816,694	-16,1
816,914	-14,91
817,134	-14,99
817,354	-17,59
817,574	-15,84
817,794	-15,73
818,014	-16,85
818,234	-16,73
818,454	-18,11
818,674	-18,05
818,894	-21,39
819,114	-21,19
819,334	-20,93
819,554	-19,96
819,774	-18,48
819,994	-21,85
820,214	-21,77
820,433	-21,28
820,653	-21,24
820,873	-19,28
821,093	-18,32
821,312	-20,35
821,532	-18,29
821,752	-15,96
821,972	-18,45
822,191	-17,32
822,411	-19,06
822,63	-19,48
822,85	-19,86
823,07	-21,32
823,289	-19,93
823,509	-21,8
823,728	-20,17
823,948	-22,46
824,167	-21,77
824,387	-23,1
824,606	-21,87
824,825	-21,61
825,045	-22,14
825,264	-21,73
825,483	-20,9
825,703	-18,5
825,922	-20,85
826,141	-22,64
826,361	-24,3
826,58	-27,46
826,799	-28,64
827,018	-27,39
827,237	-25,06
827,456	-24,28
827,676	-23,25
827,895	-24,39
828,114	-22,48
828,333	-23,66
828,552	-23,87
828,771	-21,59
828,99	-24,39
829,209	-22,99
829,428	-19,74
829,647	-19,61
829,866	-19,51
830,084	-19,99
830,303	-20,68
830,522	-20,9
830,741	-20,15
830,96	-21,19
831,179	-19,82
831,397	-20,56
831,616	-21,24
831,835	-21,7
832,053	-20,99
832,272	-20,12
832,491	-19,34
832,709	-18,87
832,928	-17,29
833,147	-16,98
833,365	-16,51
833,584	-12,9
833,802	-10,82
834,021	-12,37
834,239	-11,7
834,458	-13,98
834,676	-17,41
834,894	-18,66
835,113	-18,71
835,331	-19,05
835,55	-20,94
835,768	-19,96
835,986	-18,46
836,204	-19,81
836,423	-19,95
836,641	-20,63
836,859	-21,85
837,077	-19,89
837,296	-20,91
837,514	-21,68
837,732	-21,8
837,95	-23,23
838,168	-20,7
838,386	-20,96
838,604	-18,67
838,822	-19,02
839,04	-19,52
839,258	-19,81
839,476	-18,16
839,694	-19,3
839,912	-20,83
840,13	-20,36
840,348	-19,22
840,566	-21,73
840,783	-20,38
841,001	-21,69
841,219	-19,14
841,437	-17,2
841,655	-17,14
841,872	-17,08
842,09	-17,31
842,308	-16,52
842,525	-17,06
842,743	-16,93
842,961	-18,97
843,178	-19,34
843,396	-15,45
843,613	-13,78
843,831	-14,52
844,048	-15,5
844,266	-14,85
844,483	-14,48
844,701	-16,28
844,918	-15,61
845,136	-16,2
845,353	-17,62
845,57	-16,95
845,788	-16,08
846,005	-18,01
846,222	-19,64
846,439	-17,71
846,657	-15,81
846,874	-16,19
847,091	-17,67
847,308	-16,12
847,526	-18,43
847,743	-18,87
847,96	-22,15
848,177	-21,67
848,394	-22,04
848,611	-23,18
848,828	-23,59
849,045	-24,3
849,262	-25,05
849,479	-26,11
849,696	-26,79
849,913	-28,91
850,13	-32,98
850,347	-30,74
850,564	-28,85
850,78	-30,25
850,997	-32,69
851,214	-33,27
851,431	-32,22
851,647	-35,87
851,864	-35,62
852,081	-33,52
852,298	-36,92
852,514	-37,33
852,731	-36,23
852,948	-35,63
853,164	-36,04
853,381	-37,04
853,597	-37,64
853,814	-40,36
854,03	-44,19
854,247	-41,25
854,463	-40,7
854,68	-41,05
854,896	-41,34
855,113	-41
855,329	-39,26
855,545	-37,2
855,762	-36,76
855,978	-38,97
856,194	-40,52
856,411	-36,48
856,627	-33,63
856,843	-33,67
857,059	-32,97
857,275	-35,19
857,492	-34,28
857,708	-30,6
857,924	-28,82
858,14	-25,78
858,356	-27,05
858,572	-25,45
858,788	-29,13
859,004	-27,13
859,22	-28,7
859,436	-27,55
859,652	-26,94
859,868	-27,86
860,084	-27,59
860,3	-27,1
860,516	-26,43
860,731	-25,45
860,947	-28,56
861,163	-27,76
861,379	-27,05
861,595	-25,18
861,81	-23,97
862,026	-24,79
862,242	-25,76
862,457	-26,36
862,673	-24,03
862,889	-22,74
863,104	-23,97
863,32	-24,81
863,535	-22,77
863,751	-26,41
863,966	-23,95
864,182	-21,89
864,397	-23,08
864,613	-24,01
864,828	-26,21
865,044	-24,65
865,259	-24,2
865,474	-23,66
865,69	-20,91
865,905	-20,92
866,12	-23,34
866,336	-23,91
866,551	-22,27
866,766	-23,23
866,981	-24,75
867,196	-25,14
867,412	-23,56
867,627	-23,04
867,842	-23,28
868,057	-22,65
868,272	-23,47
868,487	-25,09
868,702	-27,66
868,917	-27,87
869,132	-26,15
869,347	-25,66
869,562	-27,87
869,777	-27,92
869,992	-28,81
870,207	-30,02
870,422	-30,96
870,636	-33,05
870,851	-34,54
871,066	-36,09
871,281	-35,98
871,495	-37,17
871,71	-33,94
871,925	-36,15
872,14	-38,06
872,354	-41,17
872,569	-39,93
872,783	-36,78
872,998	-37,19
873,213	-37,37
873,427	-34,78
873,642	-33,31
873,856	-31,63
874,071	-31,7
874,285	-32,37
874,5	-34,78
874,714	-36,28
874,928	-37,05
875,143	-37,3
875,357	-35,62
875,571	-36,69
875,786	-36,1
876	-33,2
876,214	-30,63
876,429	-33,8
876,643	-31,75
876,857	-30,3
877,071	-28,28
877,285	-29,02
877,499	-33,04
877,714	-30,88
877,928	-28,82
878,142	-29,28
878,356	-33,08
878,57	-30,39
878,784	-27,96
878,998	-29,03
879,212	-27,41
879,426	-30,53
879,639	-28,52
879,853	-30,39
880,067	-30,1
880,281	-31,49
880,495	-31,4
880,709	-28,88
880,922	-28,84
881,136	-26,83
881,35	-24,22
881,564	-24,39
881,777	-26,38
881,991	-25,75
882,205	-22,75
882,418	-23,01
882,632	-25,4
882,845	-25,17
883,059	-24,01
883,273	-24,51
883,486	-26,68
883,7	-24,56
883,913	-23,71
884,126	-20,73
884,34	-23,47
884,553	-25,95
884,767	-22,16
884,98	-20,1
885,193	-21,72
885,407	-21,63
885,62	-18,84
885,833	-19,49
886,046	-17,62
886,26	-19,39
886,473	-20,39
886,686	-22,56
886,899	-20,32
887,112	-20,92
887,326	-25,05
887,539	-24,61
887,752	-22,23
887,965	-25,28
888,178	-23,58
888,391	-22,15
888,604	-22,77
888,817	-25,58
889,03	-25,32
889,243	-26,85
889,455	-30,62
889,668	-29,35
889,881	-27,48
890,094	-27,18
890,307	-29,31
890,52	-28,67
890,732	-27,56
890,945	-27,81
891,158	-26,5
891,37	-27,45
891,583	-28,05
891,796	-25,71
892,008	-27,05
892,221	-27,79
892,434	-31,12
892,646	-32,51
892,859	-32,74
893,071	-30,55
893,284	-28,08
893,496	-29,76
893,709	-30,81
893,921	-29,11
894,133	-29,05
894,346	-31,83
894,558	-30,83
894,771	-31,87
894,983	-30,16
895,195	-28,01
895,407	-26,62
895,62	-28,9
895,832	-28,39
896,044	-25,6
896,256	-27,63
896,468	-29,95
896,681	-28,85
896,893	-27,86
897,105	-28,17
897,317	-29,22
897,529	-26,55
897,741	-26,57
897,953	-24,57
898,165	-26,83
898,377	-29,57
898,589	-28,22
898,801	-29,16
899,013	-25,85
899,224	-22,16
899,436	-20,61
899,648	-21,41
899,86	-24,3
900,072	-21,96
900,283	-19,29
900,495	-16,52
900,707	-16,42
900,919	-18,27
901,13	-15,81
901,342	-17,08
901,554	-18,2
901,765	-19,39
901,977	-21,84
902,188	-22,51
902,4	-24,09
902,611	-24,53
902,823	-24,86
903,034	-27,12
903,246	-28,48
903,457	-30,49
903,669	-31,25
903,88	-31,25
904,091	-31,84
904,303	-31,34
904,514	-33,83
904,725	-30,86
904,936	-28,62
905,148	-28,7
905,359	-25,47
905,57	-26,64
905,781	-29,85
905,992	-30,55
906,204	-29,56
906,415	-29,3
906,626	-31,08
906,837	-29,44
907,048	-31,91
907,259	-31,42
907,47	-31,97
907,681	-34,29
907,892	-30,71
908,103	-32,57
908,314	-34,82
908,525	-31,39
908,735	-30,16
908,946	-29,72
909,157	-31,35
909,368	-28,82
909,579	-26,55
909,789	-27,29
910	-28,24
910,211	-25,98
910,421	-26,07
910,632	-24,94
910,843	-27,93
911,053	-24,49
911,264	-21,86
911,475	-24,32
911,685	-24,16
911,896	-25,33
912,106	-23,66
912,317	-23,85
912,527	-21
912,737	-22,54
912,948	-20,73
913,158	-20,15
913,369	-24,05
913,579	-21,56
913,789	-21,47
914	-18,15
914,21	-18,29
914,42	-19,08
914,63	-19,28
914,841	-17,56
915,051	-16,3
915,261	-15,92
915,471	-12,69
915,681	-12,56
915,891	-11,94
916,101	-14,44
916,311	-14,92
916,521	-13,19
916,731	-12,9
916,941	-9,73
917,151	-12,11
917,361	-8,1
917,571	-11,66
917,781	-13,69
917,991	-15,31
918,201	-15,76
918,411	-17,67
918,621	-19,45
918,83	-19,37
919,04	-22,66
919,25	-20,74
919,46	-19,71
919,669	-22,13
919,879	-20,52
920,089	-23,77
920,298	-23,99
920,508	-23,59
920,717	-23,68
920,927	-25,25
921,136	-22,31
921,346	-23,41
921,555	-27,2
921,765	-27,41
921,974	-31,12
922,184	-31,61
922,393	-32,82
922,603	-31,61
922,812	-27,91
923,021	-28,68
923,23	-30,76
923,44	-34,92
923,649	-33,51
923,858	-34,81
924,067	-35,56
924,277	-38,4
924,486	-35,3
924,695	-35,19
924,904	-34,13
925,113	-33,74
925,322	-32,53
925,531	-31,85
925,74	-33,72
925,949	-34,72
926,158	-31,74
926,367	-32,92
926,576	-32,05
926,785	-33,5
926,994	-34,86
927,203	-32,74
927,412	-33,24
927,621	-35,54
927,83	-33,22
928,038	-32,65
928,247	-32,65
928,456	-30,83
928,665	-30,28
928,873	-28,36
929,082	-26,86
929,291	-25,75
929,499	-23,83
929,708	-25,88
929,916	-24,37
930,125	-26,62
930,333	-27,71
930,542	-25,17
930,75	-23,45
930,959	-22,34
931,167	-22,98
931,376	-24,49
931,584	-24,14
931,793	-23,99
932,001	-23,99
932,209	-26,51
932,418	-28,7
932,626	-31,58
932,834	-32,77
933,042	-35,5
933,251	-35,54
933,459	-34,55
933,667	-35,75
933,875	-35,45
934,083	-34,03
934,291	-33,76
934,499	-33,09
934,707	-32,31
934,915	-33,21
935,123	-29,85
935,331	-31,44
935,539	-33,39
935,747	-35,76
935,955	-36,99
936,163	-36,05
936,371	-36,43
936,579	-32,72
936,787	-32,43
936,995	-34,33
937,202	-36,43
937,41	-38,81
937,618	-39,21
937,826	-37,17
938,033	-40,47
938,241	-42,17
938,449	-41,1
938,656	-37,6
938,864	-36,8
939,071	-35,36
939,279	-31,58
939,486	-29,3
939,694	-30,5
939,901	-31,97
940,109	-32,46
940,316	-33,63
940,524	-33,7
940,731	-35,01
940,939	-32,99
941,146	-34,64
941,353	-35,02
941,561	-36,65
941,768	-37,26
941,975	-34,9
942,182	-36,35
942,39	-36,39
942,597	-32,31
942,804	-31,88
943,011	-33,75
943,218	-33,12
943,425	-33,93
943,632	-32,39
943,839	-31,33
944,046	-31,5
944,253	-32,47
944,46	-31,5
944,667	-28,13
944,874	-29,07
945,081	-27,79
945,288	-25,82
945,495	-24,63
945,702	-26,47
945,909	-27,63
946,115	-26,14
946,322	-27,04
946,529	-28,79
946,736	-27,91
946,942	-26,16
947,149	-26,07
947,356	-29,37
947,562	-30,98
947,769	-30,25
947,976	-31,14
948,182	-29,65
948,389	-31,12
948,595	-29,53
948,802	-28,81
949,008	-31,34
949,215	-28,95
949,421	-29,24
949,628	-31,65
949,834	-29,63
950,04	-29,43
950,247	-26,55
950,453	-25,4
950,659	-26
950,865	-24,52
951,072	-29,19
951,278	-27
951,484	-27,78
951,69	-32,92
951,896	-32,92
952,103	-33,3
952,309	-30,76
952,515	-29,27
952,721	-26,95
952,927	-23,76
953,133	-25,31
953,339	-27,76
953,545	-28,47
953,751	-26,57
953,957	-23,88
954,163	-25,16
954,369	-24,95
954,574	-27,2
954,78	-27,5
954,986	-27,32
955,192	-25,5
955,398	-26,58
955,603	-31,45
955,809	-28,98
956,015	-26,83
956,22	-26,73
956,426	-25,26
956,632	-28,77
956,837	-29,57
957,043	-29,28
957,248	-28,83
957,454	-27,81
957,66	-28,7
957,865	-29,68
958,07	-26,55
958,276	-29,46
958,481	-30,73
958,687	-32,64
958,892	-33,81
959,097	-35,12
959,303	-35,91
959,508	-34,68
959,713	-34,11
959,919	-34,65
960,124	-35,48
960,329	-34,08
960,534	-31,17
960,739	-29,33
960,945	-27,55
961,15	-27,69
961,355	-29,42
961,56	-33,51
961,765	-34,21
961,97	-32,53
962,175	-32,92
962,38	-36,34
962,585	-35,64
962,79	-38,67
962,995	-38,15
963,2	-38,71
963,404	-38,75
963,609	-41,1
963,814	-42,41
964,019	-45,8
964,224	-48,33
964,428	-47,79
964,633	-45,96
964,838	-44,17
965,042	-44,11
965,247	-44,66
965,452	-45,37
965,656	-44,11
965,861	-44,09
966,066	-44,78
966,27	-41,55
966,475	-37,86
966,679	-42,51
966,884	-41,67
967,088	-43,54
967,292	-44,29
967,497	-42,85
967,701	-43,56
967,906	-40,93
968,11	-37,83
968,314	-34,82
968,518	-35,28
968,723	-32,13
968,927	-31,85
969,131	-29,31
969,335	-27,73
969,539	-27,9
969,744	-26,47
969,948	-23,27
970,152	-20,4
970,356	-18,45
970,56	-16,48
970,764	-17,36
970,968	-14,37
971,172	-13,71
971,376	-12,49
971,58	-11,62
971,784	-10,76
971,988	-13,43
972,192	-11,19
972,395	-12,4
972,599	-16,52
972,803	-18,68
973,007	-16,1
973,21	-17,39
973,414	-18,6
973,618	-18,03
973,822	-17,6
974,025	-16,68
974,229	-17,58
974,432	-20,81
974,636	-21,9
974,84	-21,56
975,043	-22,01
975,247	-23,71
975,45	-25,34
975,654	-24,6
975,857	-22,8
976,06	-23,24
976,264	-26,34
976,467	-24,66
976,671	-26,42
976,874	-25,89
977,077	-26,88
977,28	-28,27
977,484	-31,05
977,687	-31,84
977,89	-30,57
978,093	-29,78
978,297	-27,83
978,5	-29,74
978,703	-27,57
978,906	-25,93
979,109	-26,37
979,312	-26,1
979,515	-26,3
979,718	-26,35
979,921	-27,14
980,124	-29,91
980,327	-30,77
980,53	-30,24
980,733	-27,03
980,936	-25,77
981,138	-27,56
981,341	-26,55
981,544	-27,07
981,747	-28,3
981,949	-29,63
982,152	-28,25
982,355	-29,46
982,558	-25,56
982,76	-28,75
982,963	-28,6
983,165	-28,38
983,368	-26,44
983,571	-28,41
983,773	-25,17
983,976	-24,37
984,178	-23,79
984,381	-24,43
984,583	-26,04
984,785	-25,77
984,988	-23,54
985,19	-21,32
985,392	-21,82
985,595	-24,35
985,797	-23,91
985,999	-19,84
986,202	-18,89
986,404	-18,7
986,606	-14,65
986,808	-16,72
987,01	-16,94
987,212	-17,62
987,415	-18,88
987,617	-20
987,819	-19,49
988,021	-17,63
988,223	-19,8
988,425	-21,93
988,627	-21,19
988,829	-24,95
989,031	-23,84
989,232	-23,17
989,434	-21,3
989,636	-22,03
989,838	-20,59
990,04	-19,39
990,242	-20,91
990,443	-23,22
990,645	-20,22
990,847	-17,66
991,048	-17,33
991,25	-19,4
991,452	-21,64
991,653	-24,02
991,855	-22,54
992,057	-23,85
992,258	-24,13
992,46	-23,67
992,661	-23
992,863	-25,57
993,064	-24,32
993,265	-25,48
993,467	-27,81
993,668	-25,05
993,87	-24
994,071	-23,84
994,272	-23,86
994,473	-21,99
994,675	-20,48
994,876	-19,95
995,077	-19,69
995,278	-19,08
995,48	-18,61
995,681	-20,56
995,882	-19,79
996,083	-21,2
996,284	-25,18
996,485	-25,39
996,686	-27,14
996,887	-29,5
997,088	-33,42
997,289	-35,57
997,49	-35,76
997,691	-34,98
997,892	-34,43
998,092	-30,42
998,293	-30,14
998,494	-31,16
998,695	-31,95
998,896	-30,07
999,096	-30,64
999,297	-29,04
999,498	-30,4
999,698	-32,08
999,899	-34,23
1000,1	-35,93
1000,3	-36,41
1000,501	-36,25
1000,701	-36,34
1000,902	-37,06
1001,102	-37,81
1001,303	-36,09
1001,503	-38,61
1001,704	-38,88
1001,904	-39,66
1002,105	-39,27
1002,305	-38,26
1002,505	-38,91
1002,706	-39,02
1002,906	-36,97
1003,106	-38,15
1003,306	-35,74
1003,507	-33
1003,707	-34,21
1003,907	-31,97
1004,107	-28,71
1004,307	-31,58
1004,507	-29,3
1004,707	-30,77
1004,907	-32,18
1005,107	-33,61
1005,308	-32,03
1005,507	-34,65
1005,707	-31,33
1005,907	-30,41
1006,107	-27,98
1006,307	-27,33
1006,507	-27,93
1006,707	-27,26
1006,907	-28,39
1007,106	-29,99
1007,306	-30,94
1007,506	-30,46
1007,706	-28,52
1007,905	-30,77
1008,105	-30,6
1008,305	-32,74
1008,504	-30,48
1008,704	-25,66
1008,903	-24,68
1009,103	-23,48
1009,303	-26,34
1009,502	-25,95
1009,702	-27,97
1009,901	-27,13
1010,1	-30,45
1010,3	-29,1
1010,499	-31,1
1010,699	-33,56
1010,898	-34,53
1011,097	-34,07
1011,296	-33,06
1011,496	-35,08
1011,695	-35,36
1011,894	-37,63
1012,093	-33,91
1012,293	-35,57
1012,492	-35,62
1012,691	-35,59
1012,89	-36,19
1013,089	-37,99
1013,288	-35,57
1013,487	-34,24
1013,686	-34,38
1013,885	-36,14
1014,084	-34,62
1014,283	-35,29
1014,482	-35,16
1014,681	-37,82
1014,88	-41,48
1015,078	-40,53
1015,277	-43,8
1015,476	-42,46
1015,675	-43,19
1015,873	-42,7
1016,072	-44,54
1016,271	-41,9
1016,47	-46,81
1016,668	-45,57
1016,867	-47,51
1017,065	-48,85
1017,264	-49,26
1017,463	-49,32
1017,661	-48,68
1017,86	-48,06
1018,058	-46,98
1018,256	-48,71
1018,455	-50,29
1018,653	-49,79
1018,852	-47,82
1019,05	-50,21
1019,248	-50,05
1019,447	-51,47
1019,645	-52,46
1019,843	-53,38
1020,041	-51,89
1020,24	-51,62
1020,438	-46,6
1020,636	-46,87
1020,834	-48,74
1021,032	-46,55
1021,23	-47,12
1021,428	-44,96
1021,626	-40,4
1021,824	-40,33
1022,022	-40,01
1022,22	-37,71
1022,418	-37,4
1022,616	-37,03
1022,814	-36,39
1023,012	-35,28
1023,21	-32,37
1023,408	-31,79
1023,606	-31,95
1023,803	-26,26
1024,001	-26,54
1024,199	-29,65
1024,397	-28,83
1024,594	-27
1024,792	-28,6
1024,99	-28,81
1025,187	-28,64
1025,385	-23,89
1025,582	-22,89
1025,78	-22,19
1025,977	-21,09
1026,175	-21,33
1026,372	-20,9
1026,57	-24,34
1026,767	-20,91
1026,965	-19,28
1027,162	-19,55
1027,359	-20,92
1027,557	-20,76
1027,754	-25,51
1027,951	-26,67
1028,148	-25,38
1028,346	-27,3
1028,543	-29,96
1028,74	-29,87
1028,937	-32,26
1029,134	-32,92
1029,331	-33,34
1029,528	-32,86
1029,725	-34,63
1029,923	-38,29
1030,12	-33,46
1030,317	-31,03
1030,513	-30,56
1030,71	-29,63
1030,907	-27,58
1031,104	-28,17
1031,301	-27,52
1031,498	-29,05
1031,695	-31,02
1031,892	-31,63
1032,088	-32,13
1032,285	-33,55
1032,482	-34,81
1032,678	-38,23
1032,875	-41,75
1033,072	-41,75
1033,268	-42,82
1033,465	-42,3
1033,662	-44,06
1033,858	-42,97
1034,055	-43,58
1034,251	-40,66
1034,448	-40,96
1034,644	-40,36
1034,84	-37,11
1035,037	-33,84
1035,233	-32,58
1035,43	-31,25
1035,626	-32,2
1035,822	-31,58
1036,019	-32,23
1036,215	-36,99
1036,411	-38,68
1036,607	-40,66
1036,803	-42,74
1037	-42,5
1037,196	-44,37
1037,392	-46,46
1037,588	-48,23
1037,784	-45,69
1037,98	-45,77
1038,176	-47,18
1038,372	-47,59
1038,568	-44,7
1038,764	-41,87
1038,96	-38,33
1039,156	-40,58
1039,352	-41,66
1039,547	-40,53
1039,743	-39,95
1039,939	-37,81
1040,135	-38,06
1040,331	-39,58
1040,526	-36,77
1040,722	-37,44
1040,918	-40,03
1041,113	-43,92
1041,309	-44,96
1041,505	-48,16
1041,7	-47,51
1041,896	-47
1042,091	-48,19
1042,287	-47,47
1042,482	-46,43
1042,678	-46,54
1042,873	-45,83
1043,069	-47,22
1043,264	-45,88
1043,459	-43,15
1043,655	-42,07
1043,85	-44,16
1044,045	-43,67
1044,24	-42,7
1044,436	-40,71
1044,631	-43,68
1044,826	-44,18
1045,021	-48,59
1045,216	-45,48
