Data from FLMT021711__17__16-32-06-906.txt Node

Date: Tue Nov 05 16:32:06 CET 2024
User: Etudiants TP
Spectrometer: FLMT02171
Trigger mode: 0
Integration Time (sec): 1,000000E-1
Scans to average: 5
Electric dark correction enabled: true
Nonlinearity correction enabled: false
Boxcar width: 15
XAxis mode: Wavelengths
Number of Pixels in Spectrum: 3648
>>>>>Begin Spectral Data<<<<<
194,658	-44,39
194,923	-43,63
195,188	-35,92
195,453	-34,67
195,717	-29,94
195,982	-28,94
196,247	-27,86
196,512	-29,76
196,777	-28,41
197,042	-25,85
197,307	-26,14
197,572	-22,85
197,837	-22,64
198,101	-20,04
198,366	-19,31
198,631	-19,03
198,896	-14,94
199,161	-9,37
199,425	-3,28
199,69	4,17
199,955	2,51
200,22	0,2
200,484	-0,2
200,749	0,23
201,014	2,35
201,278	3,43
201,543	4,75
201,807	4,21
202,072	5,11
202,337	4,93
202,601	4,94
202,866	3,92
203,13	4,3
203,395	2,24
203,659	2,28
203,924	0,13
204,189	0,23
204,453	0,8
204,717	3,14
204,982	3,33
205,246	3,35
205,511	4,16
205,775	2,21
206,04	6,74
206,304	6,72
206,568	9,06
206,833	10,59
207,097	12,51
207,361	13,5
207,626	15,32
207,89	15,69
208,154	17,15
208,419	18,75
208,683	18,9
208,947	20,02
209,211	18,36
209,476	19,27
209,74	19,41
210,004	20,15
210,268	19,38
210,532	22,38
210,796	23,96
211,061	23,68
211,325	25,41
211,589	23,38
211,853	23,8
212,117	25
212,381	26,62
212,645	27,54
212,909	28,03
213,173	26,72
213,437	26,81
213,701	28,2
213,965	29,06
214,229	23,54
214,493	22,72
214,757	21,86
215,021	21,99
215,285	24,98
215,549	26,74
215,813	24,48
216,077	24,12
216,34	25,75
216,604	24,38
216,868	25,36
217,132	26,09
217,396	25,4
217,659	23,52
217,923	19,28
218,187	18,96
218,451	19,44
218,714	17,26
218,978	16,55
219,242	18,33
219,505	17,84
219,769	19,18
220,033	19,49
220,296	18,93
220,56	17,77
220,824	15,8
221,087	14,03
221,351	13,98
221,614	12,85
221,878	13,1
222,142	12,99
222,405	14,13
222,669	15,84
222,932	12,49
223,196	10,7
223,459	6,48
223,722	7,96
223,986	8,02
224,249	7,07
224,513	5,52
224,776	5,67
225,04	5,45
225,303	5,58
225,566	5,2
225,83	7,79
226,093	11,72
226,356	10,2
226,62	9,05
226,883	10,24
227,146	10,98
227,409	9,92
227,673	9,52
227,936	9,39
228,199	8,52
228,462	7,58
228,725	7,51
228,989	7,95
229,252	9,13
229,515	13,14
229,778	13,34
230,041	13,51
230,304	11,11
230,567	12,04
230,83	10,58
231,093	12,88
231,356	13,61
231,619	20,33
231,882	17,77
232,145	19,28
232,408	19,06
232,671	18,93
232,934	18,79
233,197	17,75
233,46	17,23
233,723	18,75
233,986	17,2
234,249	15,93
234,512	17,47
234,775	19,55
235,037	18,38
235,3	18,26
235,563	19,55
235,826	20,26
236,089	21,56
236,351	21,82
236,614	24,61
236,877	24,02
237,14	25,33
237,402	24,66
237,665	19,75
237,928	18,77
238,19	16,47
238,453	19,21
238,716	19,2
238,978	19,3
239,241	18,05
239,503	18,82
239,766	14,85
240,029	14,04
240,291	15,4
240,554	15,66
240,816	15,35
241,079	15,68
241,341	15,38
241,604	14,14
241,866	11,88
242,129	12,18
242,391	11,83
242,653	10,01
242,916	11,33
243,178	11,39
243,441	12,21
243,703	10,95
243,965	9,09
244,228	8,26
244,49	7,35
244,752	8,26
245,015	10,5
245,277	11,19
245,539	11,96
245,801	14,36
246,064	14,88
246,326	13,52
246,588	13,12
246,85	13,52
247,112	13,91
247,374	16,78
247,637	19,1
247,899	18,22
248,161	18,05
248,423	16,01
248,685	16,55
248,947	16,35
249,209	16,65
249,471	16,27
249,733	17,12
249,995	15,98
250,257	15,72
250,519	15,54
250,781	19,44
251,043	17,16
251,305	17,73
251,567	17,93
251,829	17,81
252,091	18,98
252,353	17,14
252,615	18,73
252,876	15,76
253,138	13,22
253,4	10,24
253,662	10,28
253,924	9,9
254,185	11,21
254,447	12,13
254,709	11,8
254,971	13,45
255,232	14,08
255,494	11,61
255,756	9,13
256,017	9,8
256,279	11,03
256,541	10,33
256,802	9,38
257,064	10,49
257,326	8,81
257,587	10,24
257,849	10,08
258,11	11,88
258,372	12,67
258,633	13,29
258,895	11,67
259,156	11,1
259,418	11,4
259,679	9,05
259,941	7,06
260,202	7,84
260,464	9,43
260,725	9,43
260,987	9,04
261,248	8,4
261,509	9,61
261,771	8,81
262,032	11,21
262,293	9,95
262,555	10,35
262,816	10,38
263,077	8,39
263,338	6,63
263,6	6,76
263,861	6,37
264,122	5,08
264,383	6,67
264,645	6,97
264,906	6,62
265,167	7,25
265,428	8,05
265,689	9,69
265,95	9,38
266,211	10,81
266,473	10,13
266,734	7,99
266,995	4,67
267,256	4,3
267,517	5,74
267,778	8,37
268,039	9,93
268,3	9,86
268,561	8,52
268,822	10
269,083	9,81
269,344	9,34
269,604	9,92
269,865	10,26
270,126	6,65
270,387	8,2
270,648	9
270,909	7,45
271,17	6,33
271,43	4,82
271,691	4,27
271,952	3,66
272,213	5,87
272,473	2,81
272,734	3,81
272,995	5,13
273,256	5,54
273,516	8,02
273,777	5,34
274,038	6,42
274,298	4,87
274,559	5,7
274,82	8,88
275,08	12,09
275,341	13,72
275,601	12,94
275,862	11,38
276,122	11,54
276,383	9,2
276,643	10,4
276,904	10,3
277,164	11,38
277,425	12,27
277,685	13,8
277,946	14,99
278,206	16,75
278,467	17,39
278,727	18,34
278,987	18,34
279,248	19,23
279,508	21,13
279,768	22,31
280,029	23,96
280,289	21,56
280,549	21,55
280,81	21,72
281,07	20,8
281,33	22,23
281,59	20,35
281,851	23,11
282,111	22,32
282,371	21,01
282,631	20,24
282,891	19,11
283,151	17,1
283,412	15,92
283,672	14,36
283,932	14,07
284,192	14,76
284,452	15,05
284,712	12,42
284,972	9,54
285,232	8,36
285,492	10,19
285,752	8,89
286,012	12,87
286,272	15,26
286,532	12,94
286,792	12,18
287,052	14,21
287,312	13,52
287,571	12,04
287,831	12,08
288,091	9,52
288,351	9,61
288,611	12,78
288,871	12,52
289,13	12,81
289,39	9,37
289,65	10,5
289,91	8,32
290,17	9,58
290,429	12,62
290,689	11,58
290,949	10,35
291,208	12,18
291,468	13,36
291,728	14,17
291,987	16,77
292,247	15,7
292,506	17,27
292,766	19,38
293,026	19,51
293,285	21,42
293,545	22,29
293,804	21,69
294,064	19,68
294,323	15,38
294,583	15,51
294,842	15,48
295,102	16,09
295,361	16,21
295,621	16,56
295,88	17,07
296,139	17,56
296,399	17,51
296,658	13,76
296,917	13,99
297,177	10,71
297,436	11,97
297,695	10,89
297,955	11,21
298,214	10,02
298,473	9,87
298,732	11,16
298,992	11,95
299,251	11,07
299,51	9,41
299,769	11,87
300,028	10,97
300,287	11,22
300,547	11,47
300,806	10,63
301,065	13,14
301,324	14,16
301,583	11,07
301,842	9,33
302,101	7,56
302,36	8,68
302,619	9,44
302,878	10,28
303,137	7,33
303,396	8,91
303,655	10,23
303,914	7,67
304,173	6,92
304,432	7,44
304,691	10
304,95	8,48
305,208	13,47
305,467	13,65
305,726	12,95
305,985	13,89
306,244	15,74
306,503	14,8
306,761	13,91
307,02	12,74
307,279	13,09
307,537	13,61
307,796	10,16
308,055	8,42
308,314	8,62
308,572	7,79
308,831	9,56
309,09	9,04
309,348	8,92
309,607	9,3
309,865	10,97
310,124	11,29
310,382	12,81
310,641	14,19
310,9	12,59
311,158	14,69
311,417	13,27
311,675	13,27
311,933	15,52
312,192	17,41
312,45	16,36
312,709	15,94
312,967	15,69
313,226	14,58
313,484	14,05
313,742	13,2
314,001	12,57
314,259	10,92
314,517	12,36
314,776	13,72
315,034	16,9
315,292	15,19
315,55	13,54
315,809	13,52
316,067	14
316,325	13,33
316,583	13,61
316,841	12,18
317,1	10,35
317,358	7,44
317,616	7,14
317,874	7,69
318,132	6,73
318,39	7,27
318,648	4,98
318,906	5,89
319,164	4,76
319,422	4,52
319,68	3,01
319,938	1,93
320,196	1,65
320,454	3,07
320,712	2,68
320,97	2,24
321,228	0,97
321,486	2,66
321,744	3,92
322,002	4,19
322,26	2,69
322,517	3,72
322,775	1,66
323,033	-0,67
323,291	1,97
323,549	3,95
323,806	6,16
324,064	6,4
324,322	7,96
324,58	5,7
324,837	8,51
325,095	7,74
325,353	8,27
325,61	9,27
325,868	8,12
326,126	9,32
326,383	7,01
326,641	7,06
326,898	7,26
327,156	7,24
327,413	8,02
327,671	8,34
327,928	9,74
328,186	10
328,443	9,27
328,701	11,78
328,958	13,61
329,216	13,89
329,473	12,51
329,731	12,67
329,988	13,45
330,245	15,62
330,503	15,72
330,76	15,29
331,017	17,34
331,275	14,75
331,532	13,82
331,789	11,57
332,047	11,18
332,304	8,64
332,561	9,55
332,818	7,6
333,076	9,58
333,333	11,55
333,59	12,16
333,847	12,91
334,104	11,82
334,361	12,17
334,618	11,39
334,876	9,82
335,133	10,03
335,39	9,11
335,647	9,58
335,904	8,15
336,161	5,59
336,418	5,42
336,675	2,19
336,932	2,94
337,189	1,97
337,446	1,99
337,703	1,49
337,96	-1,95
338,216	-2,41
338,473	-6,2
338,73	-4,99
338,987	-6,28
339,244	-3,75
339,501	-3,89
339,757	-2,88
340,014	-2,53
340,271	-1,27
340,528	0,71
340,785	3,13
341,041	3,19
341,298	0,87
341,555	1,76
341,811	2,36
342,068	0,61
342,325	0,35
342,581	2,35
342,838	3,45
343,094	3,89
343,351	3,93
343,608	2,6
343,864	3,95
344,121	6,81
344,377	6,82
344,634	5,97
344,89	4,22
345,147	4,96
345,403	4,47
345,66	3,78
345,916	7,1
346,172	6,28
346,429	6,88
346,685	6,22
346,942	6,42
347,198	3,88
347,454	3,79
347,711	3,36
347,967	1,28
348,223	1,3
348,48	1,32
348,736	3,65
348,992	4
349,248	5,85
349,504	5,17
349,761	4,27
350,017	5,62
350,273	5,53
350,529	4,13
350,785	3,96
351,041	3,49
351,297	4,42
351,554	3,95
351,81	2,42
352,066	0,72
352,322	-0,41
352,578	0,08
352,834	-0,29
353,09	-1,69
353,346	-2,23
353,602	-2,83
353,858	-4,64
354,114	-4,66
354,369	-2,63
354,625	-1,21
354,881	-2,7
355,137	-1,63
355,393	0,09
355,649	-0,27
355,905	1,4
356,16	1,93
356,416	1,71
356,672	-3,15
356,928	-3,8
357,183	-4,7
357,439	-5,63
357,695	-6,76
357,951	-3,93
358,206	-3,3
358,462	-2,48
358,718	-3,18
358,973	-2,47
359,229	-1,28
359,484	-0,6
359,74	1,19
359,996	1,35
360,251	4,72
360,507	4,86
360,762	4,86
361,018	8,47
361,273	8,19
361,529	9,75
361,784	9,42
362,04	11,32
362,295	9,93
362,55	10,28
362,806	11,95
363,061	13,59
363,316	13,04
363,572	14,68
363,827	15,11
364,082	13,01
364,338	12,28
364,593	11,28
364,848	12,44
365,104	10,79
365,359	13,99
365,614	14,99
365,869	11,63
366,124	11,98
366,38	11,97
366,635	12,76
366,89	13,53
367,145	11,65
367,4	14,16
367,655	14,26
367,91	14,09
368,165	12,19
368,42	10,64
368,675	11,96
368,93	11,47
369,185	9,3
369,44	8,63
369,695	10,01
369,95	8,48
370,205	7,66
370,46	6,51
370,715	6,04
370,97	5,99
371,225	5,37
371,48	6,02
371,734	5,43
371,989	7,41
372,244	7,19
372,499	9,56
372,754	9
373,008	6,97
373,263	2,54
373,518	5,81
373,773	5,74
374,027	4,09
374,282	4,47
374,537	5,27
374,791	5,69
375,046	5,97
375,301	4,6
375,555	2,8
375,81	4,21
376,064	4,24
376,319	5,74
376,573	4,58
376,828	1,55
377,082	5,38
377,337	5,38
377,591	3,26
377,846	3,69
378,1	6,21
378,355	6,46
378,609	5,79
378,863	4,3
379,118	5,54
379,372	3,48
379,627	2,79
379,881	0,91
380,135	1,13
380,389	-0,13
380,644	0,01
380,898	2,02
381,152	3,45
381,407	0,68
381,661	2,31
381,915	3,17
382,169	3,33
382,423	0,5
382,677	-2,15
382,932	-2,19
383,186	-0,51
383,44	0,77
383,694	2,84
383,948	1,21
384,202	0,63
384,456	2,29
384,71	4,53
384,964	3,55
385,218	4,6
385,472	6,3
385,726	5,7
385,98	5,29
386,234	5,93
386,488	6,19
386,742	5,56
386,996	4,47
387,249	5,44
387,503	6,37
387,757	6,96
388,011	7,31
388,265	8,46
388,518	8,78
388,772	10,78
389,026	10,88
389,28	9,46
389,533	6,9
389,787	8,21
390,041	6,42
390,295	7,53
390,548	8,91
390,802	10,63
391,055	8,19
391,309	7,49
391,563	4,83
391,816	6,86
392,07	7,36
392,323	7,17
392,577	7,27
392,83	7,85
393,084	10,98
393,337	13,64
393,591	15,74
393,844	15,53
394,098	17,03
394,351	18,79
394,604	20,97
394,858	21,58
395,111	21,53
395,364	20,16
395,618	21,58
395,871	20,54
396,124	18,58
396,378	17,31
396,631	17,08
396,884	15,18
397,137	15,08
397,391	17,68
397,644	16,39
397,897	16,8
398,15	18,42
398,403	18,77
398,657	18,25
398,91	19,38
399,163	20,37
399,416	19,82
399,669	19,54
399,922	17,69
400,175	18
400,428	19,51
400,681	23,06
400,934	23,28
401,187	25,36
401,44	27,77
401,693	28,03
401,946	28,4
402,199	26,61
402,452	26,61
402,704	23,18
402,957	23,5
403,21	25,31
403,463	25,18
403,716	25,19
403,969	26,61
404,221	27,56
404,474	29,11
404,727	32,45
404,98	34,25
405,232	33,51
405,485	34,97
405,738	37,1
405,99	37,13
406,243	38,58
406,496	40,65
406,748	40,04
407,001	38,82
407,253	40,32
407,506	40,03
407,759	42,46
408,011	39,39
408,264	37,98
408,516	34,7
408,769	29,49
409,021	26,78
409,274	22,11
409,526	23,56
409,778	21,81
410,031	23,01
410,283	22,15
410,536	27,48
410,788	26,01
411,04	25,99
411,293	27,08
411,545	27,65
411,797	27,98
412,049	26,93
412,302	27,41
412,554	28,34
412,806	27,62
413,058	28,2
413,311	27,94
413,563	27,72
413,815	28,5
414,067	26,79
414,319	25,17
414,571	26,27
414,823	25,65
415,075	24,14
415,328	24,47
415,58	27,22
415,832	28,84
416,084	30,01
416,336	29,47
416,588	33,14
416,84	32,57
417,091	36,58
417,343	31,99
417,595	32,08
417,847	33,05
418,099	33,33
418,351	33,05
418,603	35,3
418,855	36,21
419,106	35,42
419,358	36,63
419,61	36,57
419,862	36,6
420,114	33,66
420,365	33,14
420,617	33,82
420,869	31,08
421,12	30,49
421,372	29,97
421,624	28,78
421,875	29,38
422,127	27,2
422,379	27,11
422,63	28,51
422,882	29,02
423,133	29,43
423,385	27,94
423,636	29,1
423,888	29,92
424,139	32,34
424,391	30,9
424,642	29,62
424,894	28,03
425,145	29,88
425,396	28,55
425,648	30,08
425,899	28,66
426,151	28,62
426,402	28,22
426,653	28,96
426,905	26,97
427,156	25,35
427,407	24,39
427,658	24,7
427,91	23,98
428,161	23,93
428,412	25,31
428,663	27,12
428,914	27,9
429,166	28,63
429,417	28,51
429,668	27,32
429,919	26,03
430,17	25,26
430,421	25,83
430,672	28,51
430,923	28,53
431,174	29,36
431,425	33,74
431,676	40,59
431,927	47,94
432,178	61,06
432,429	75,15
432,68	86,34
432,931	97,26
433,182	105,89
433,433	107,36
433,683	110,64
433,934	110,65
434,185	109,83
434,436	108,02
434,687	111,81
434,937	114,28
435,188	114,31
435,439	114,84
435,69	117,16
435,94	115,47
436,191	114,51
436,442	113,83
436,692	113,16
436,943	111,99
437,194	111,72
437,444	113,57
437,695	117,38
437,945	117,89
438,196	116,08
438,447	114,03
438,697	114,01
438,948	112,46
439,198	105,8
439,449	95,25
439,699	85,62
439,949	71,84
440,2	56,39
440,45	43,63
440,701	34,78
440,951	27,47
441,201	23,89
441,452	21,48
441,702	19,4
441,952	19,77
442,203	20,7
442,453	17,66
442,703	17,16
442,953	18,08
443,204	18,22
443,454	16,29
443,704	17,87
443,954	16,92
444,204	17,68
444,455	18,87
444,705	19,8
444,955	19,66
445,205	19,14
445,455	16,26
445,705	16,84
445,955	17,76
446,205	17,87
446,455	18,98
446,705	18,39
446,955	18,84
447,205	19,79
447,455	19,73
447,705	18,56
447,955	18,3
448,205	21,53
448,454	21,06
448,704	21,36
448,954	20,26
449,204	21,65
449,454	23,11
449,704	22,23
449,953	21,38
450,203	22,94
450,453	20,17
450,703	20,61
450,952	19,94
451,202	22,59
451,452	21,56
451,701	22,32
451,951	25,67
452,201	24,39
452,45	23,14
452,7	23,27
452,949	23,03
453,199	22,99
453,448	23,5
453,698	23,99
453,947	22,43
454,197	21,18
454,446	19,96
454,696	22,26
454,945	21,87
455,195	21,49
455,444	22,65
455,693	24,99
455,943	21,4
456,192	21,16
456,442	21,01
456,691	21,83
456,94	19,96
457,189	18,33
457,439	19,55
457,688	20,45
457,937	20,36
458,186	22,01
458,436	22,01
458,685	21,28
458,934	18,51
459,183	18,04
459,432	19,65
459,681	18,22
459,93	18,75
460,179	18,86
460,429	18,56
460,678	20,14
460,927	22,22
461,176	21,25
461,425	20,7
461,674	23,21
461,923	23,64
462,172	23,96
462,42	22,47
462,669	24,18
462,918	24,32
463,167	24,87
463,416	22,26
463,665	23,55
463,914	22,99
464,162	22,28
464,411	21,9
464,66	23,84
464,909	22,85
465,158	23,54
465,406	22,92
465,655	24,28
465,904	24,84
466,152	24,61
466,401	26,21
466,65	28,11
466,898	26,86
467,147	23,8
467,395	23,6
467,644	24,93
467,893	24,59
468,141	23,99
468,39	21,79
468,638	21
468,887	20,15
469,135	20,32
469,384	20,05
469,632	19,6
469,88	18,82
470,129	21,89
470,377	19,85
470,626	21,3
470,874	21,55
471,122	24,05
471,371	22,41
471,619	21,35
471,867	22,66
472,115	22,73
472,364	20,76
472,612	23,09
472,86	20,69
473,108	22,22
473,356	21,54
473,605	20,76
473,853	19,19
474,101	18,33
474,349	18,19
474,597	20,43
474,845	21,02
475,093	19,59
475,341	17,42
475,589	17,75
475,837	18,53
476,085	20,76
476,333	19,03
476,581	20,37
476,829	18,73
477,077	21,63
477,325	22,41
477,573	23,92
477,821	20,52
478,069	20,79
478,317	20,16
478,564	22,57
478,812	20,74
479,06	20,97
479,308	21,68
479,555	21,99
479,803	20,89
480,051	21,88
480,299	22,94
480,546	24,48
480,794	22,83
481,042	24,27
481,289	25,48
481,537	28,66
481,784	29,18
482,032	31,91
482,28	33,18
482,527	34,37
482,775	36,23
483,022	39,53
483,27	42,72
483,517	47,6
483,765	48,24
484,012	50,58
484,259	50,63
484,507	54,69
484,754	55,9
485,002	56,67
485,249	56,96
485,496	61,09
485,744	61,84
485,991	62,62
486,238	61,41
486,486	64,64
486,733	66,62
486,98	68,73
487,227	68,92
487,474	71,02
487,722	73,63
487,969	72,31
488,216	72,42
488,463	72,62
488,71	70,55
488,957	69,91
489,204	68,49
489,451	68,82
489,699	66,1
489,946	64,38
490,193	62,7
490,44	62,43
490,687	61,67
490,934	58,57
491,18	53,5
491,427	52,7
491,674	52,29
491,921	51,51
492,168	48,46
492,415	44,65
492,662	42,6
492,909	44,04
493,155	42,3
493,402	41,26
493,649	40
493,896	39,11
494,142	36,42
494,389	34,32
494,636	32,53
494,883	30,01
495,129	28,48
495,376	26,4
495,623	26,39
495,869	27,22
496,116	27,68
496,362	28,11
496,609	29,79
496,855	32,1
497,102	30,74
497,348	31
497,595	30,72
497,841	34,09
498,088	31,63
498,334	29,75
498,581	28,46
498,827	28,42
499,074	28,41
499,32	29,66
499,566	31,04
499,813	31,52
500,059	29,98
500,305	30,46
500,552	28,2
500,798	27,68
501,044	29,46
501,29	27,71
501,537	25,9
501,783	26,54
502,029	29,36
502,275	27,67
502,521	26,11
502,767	26,3
503,013	27,6
503,26	24,37
503,506	21,63
503,752	21,82
503,998	20,69
504,244	20,07
504,49	16,78
504,736	17,83
504,982	16,83
505,228	17,89
505,474	17,17
505,72	18,01
505,966	16,93
506,211	18,86
506,457	18,33
506,703	14,82
506,949	13,37
507,195	12,6
507,441	9,73
507,686	11,32
507,932	10,68
508,178	11,97
508,424	8,94
508,669	7,92
508,915	7,7
509,161	9,56
509,406	9,87
509,652	9,32
509,898	11,11
510,143	12,64
510,389	12,06
510,634	8,89
510,88	11,76
511,125	13,05
511,371	13,05
511,616	13,56
511,862	10,68
512,107	9,47
512,353	10,85
512,598	10,88
512,844	8,64
513,089	6,41
513,335	7,76
513,58	8,48
513,825	6,96
514,071	6,56
514,316	7,18
514,561	6,37
514,806	5,58
515,052	8,36
515,297	5,96
515,542	7,37
515,787	8,32
516,033	9,95
516,278	9,13
516,523	9,05
516,768	8,26
517,013	6,93
517,258	6,31
517,503	5,24
517,748	5,79
517,993	5,86
518,238	5,67
518,483	5,9
518,728	5,5
518,973	3,73
519,218	3,82
519,463	4,93
519,708	5,39
519,953	3,12
520,198	2,61
520,443	4,61
520,688	6,45
520,933	4,81
521,177	4,17
521,422	4,42
521,667	6,84
521,912	6,94
522,157	6,65
522,401	7,74
522,646	7,51
522,891	9,65
523,135	9,49
523,38	8,96
523,625	8,21
523,869	10,16
524,114	10,75
524,358	9,94
524,603	10,41
524,848	8,28
525,092	8,34
525,337	9,37
525,581	9,78
525,826	12,45
526,07	11,22
526,315	12,99
526,559	12,79
526,803	10,26
527,048	12,15
527,292	12,32
527,537	11,44
527,781	10,98
528,025	8,48
528,269	9,74
528,514	9,78
528,758	9,34
529,002	9,94
529,247	12,23
529,491	11,54
529,735	14,08
529,979	14,68
530,223	15,57
530,467	12,83
530,712	11,49
530,956	11,03
531,2	11,67
531,444	9,84
531,688	11,64
531,932	10,5
532,176	10,69
532,42	10,79
532,664	11,92
532,908	9,27
533,152	8,63
533,396	7,45
533,64	7,4
533,884	6,06
534,128	6,85
534,371	9,68
534,615	11,33
534,859	12,44
535,103	13,82
535,347	15,74
535,59	17,58
535,834	15,28
536,078	17,44
536,322	20,03
536,565	23,4
536,809	23,35
537,053	27,92
537,296	29,41
537,54	32,68
537,784	36,6
538,027	43,29
538,271	48,3
538,514	54,02
538,758	59,61
539,001	64,72
539,245	69,98
539,488	77,35
539,732	83,9
539,975	88,7
540,219	94,7
540,462	101,49
540,706	105,53
540,949	110
541,192	113,02
541,436	119,53
541,679	127,75
541,922	133
542,166	135,97
542,409	141,39
542,652	149,19
542,895	157,01
543,139	165,11
543,382	173,13
543,625	177,99
543,868	181,91
544,111	184,16
544,354	186,04
544,598	185,69
544,841	186,8
545,084	184,81
545,327	182,49
545,57	181,04
545,813	180,08
546,056	175,2
546,299	172,13
546,542	170,43
546,785	168,22
547,028	163,66
547,271	158,74
547,514	156,85
547,756	151,32
547,999	146,96
548,242	145,33
548,485	140,11
548,728	139,01
548,971	131,32
549,213	126,12
549,456	120,1
549,699	114,56
549,942	108,21
550,184	100,86
550,427	93,01
550,67	84,96
550,912	76,06
551,155	71,23
551,398	65,46
551,64	59,77
551,883	55,22
552,125	51,56
552,368	48,5
552,61	43,64
552,853	42,55
553,095	38,59
553,338	35,06
553,58	33,69
553,823	30,14
554,065	29,95
554,308	25,32
554,55	22,98
554,792	19,65
555,035	16,86
555,277	14,67
555,519	13,19
555,762	10,99
556,004	9,49
556,246	6,6
556,488	8,11
556,731	4,4
556,973	5,2
557,215	3,61
557,457	4,35
557,699	5,63
557,941	1,78
558,183	0,68
558,426	2,33
558,668	-0,55
558,91	0,26
559,152	0,14
559,394	-0,43
559,636	0,11
559,878	0,08
560,12	-0,77
560,362	0,07
560,604	0,04
560,845	-0,65
561,087	-2,38
561,329	0,09
561,571	-2,58
561,813	-1,08
562,055	-2,51
562,297	-1,65
562,538	-1,59
562,78	0,31
563,022	-1,02
563,264	-0,2
563,505	0,33
563,747	0,25
563,989	-1,38
564,23	-0,92
564,472	-1,71
564,714	0,81
564,955	0,08
565,197	-2,65
565,438	-0,25
565,68	3,46
565,921	1,95
566,163	3,22
566,404	2,46
566,646	4,88
566,887	6,3
567,129	8,11
567,37	6,49
567,612	8,87
567,853	6,46
568,094	7,92
568,336	8,17
568,577	9,33
568,818	8,58
569,06	6,81
569,301	5,42
569,542	5,9
569,783	8,36
570,025	9
570,266	9,3
570,507	11,07
570,748	10,7
570,989	11,64
571,23	13,5
571,472	13,59
571,713	14,12
571,954	14,63
572,195	13,19
572,436	14,13
572,677	16,29
572,918	18,81
573,159	16,67
573,4	16,52
573,641	15,75
573,882	15,84
574,123	13,74
574,364	10,99
574,604	11,95
574,845	11,57
575,086	12,23
575,327	13,13
575,568	12,04
575,809	12,9
576,049	13,98
576,29	13,4
576,531	17,85
576,771	19,47
577,012	22,41
577,253	22,67
577,494	23,75
577,734	23,88
577,975	25,65
578,215	25,62
578,456	24,79
578,697	25,88
578,937	29,45
579,178	28,44
579,418	28,77
579,659	29,26
579,899	28,83
580,14	29,1
580,38	28,59
580,62	30,13
580,861	33,88
581,101	35,58
581,342	36,69
581,582	34,61
581,822	35,84
582,063	34,25
582,303	36,29
582,543	36,86
582,783	39,44
583,024	41,59
583,264	42,55
583,504	41,41
583,744	44,17
583,984	43,43
584,224	45,5
584,465	45,04
584,705	44,97
584,945	45,97
585,185	46,25
585,425	46,35
585,665	48,25
585,905	49,84
586,145	49,47
586,385	46,32
586,625	49,4
586,865	48,11
587,105	47,91
587,345	47
587,585	46,13
587,824	45,57
588,064	44
588,304	41,34
588,544	39,84
588,784	37,97
589,024	40,73
589,263	41,82
589,503	41,75
589,743	43,68
589,982	43,4
590,222	42,14
590,462	40,24
590,701	38,71
590,941	40,21
591,181	38,18
591,42	36,16
591,66	36,85
591,899	39
592,139	39,18
592,378	38,61
592,618	37,09
592,857	35,85
593,097	34,81
593,336	33,54
593,576	32,93
593,815	34,81
594,055	32,75
594,294	33,33
594,533	32,82
594,773	33,65
595,012	34,7
595,251	34,37
595,491	35,76
595,73	37,49
595,969	38,6
596,208	39,5
596,447	41,34
596,687	41,34
596,926	40,76
597,165	36,66
597,404	37,93
597,643	35,41
597,882	34,81
598,121	35,91
598,36	36,47
598,599	36,73
598,838	37,31
599,077	33,35
599,316	31,75
599,555	30,38
599,794	30,32
600,033	32,16
600,272	32,3
600,511	29,74
600,75	31,62
600,989	33,68
601,228	31,5
601,466	31,61
601,705	31,9
601,944	32,61
602,183	34,14
602,422	32,11
602,66	31,49
602,899	31,64
603,138	30,99
603,376	30,56
603,615	31,29
603,854	30,39
604,092	30,79
604,331	32,63
604,569	33,07
604,808	32,66
605,047	34,98
605,285	35,85
605,524	35,18
605,762	34,95
606	37,15
606,239	40,16
606,477	42,51
606,716	43,37
606,954	48,39
607,193	53,54
607,431	59,15
607,669	69,76
607,908	82,13
608,146	95,93
608,384	107,22
608,622	121,33
608,861	133,04
609,099	143,2
609,337	151,89
609,575	160,39
609,813	171,42
610,052	177,58
610,29	179,1
610,528	181,95
610,766	186,72
611,004	189,98
611,242	193,19
611,48	195,94
611,718	196,75
611,956	199,98
612,194	201,11
612,432	202,78
612,67	203,83
612,908	207,06
613,146	206,63
613,384	206,97
613,621	205,57
613,859	205,41
614,097	204,09
614,335	200,13
614,573	194,71
614,811	188,82
615,048	178,67
615,286	168,85
615,524	154,98
615,761	139,72
615,999	127,51
616,237	116,32
616,474	107,81
616,712	99,96
616,95	90,27
617,187	80,87
617,425	76,18
617,662	73,17
617,9	68,92
618,137	62,45
618,375	57,52
618,612	53,51
618,85	52,16
619,087	52,79
619,325	51,31
619,562	47,23
619,799	45,07
620,037	43,03
620,274	40,59
620,511	40,56
620,749	36,55
620,986	35,11
621,223	32,56
621,461	32,34
621,698	33,35
621,935	32,57
622,172	31,22
622,409	33,57
622,647	32,88
622,884	32,54
623,121	35,37
623,358	34,27
623,595	34,52
623,832	35,18
624,069	33,1
624,306	34,46
624,543	35,81
624,78	36,33
625,017	36,36
625,254	38,26
625,491	40,38
625,728	42,71
625,965	41,91
626,202	41,22
626,438	39,25
626,675	38,38
626,912	40,85
627,149	41,49
627,386	41,96
627,622	41,15
627,859	40,81
628,096	42,22
628,333	42,51
628,569	45,11
628,806	46,33
629,043	44,73
629,279	46,26
629,516	48,66
629,752	44,09
629,989	44,47
630,225	41,97
630,462	40,74
630,699	40,39
630,935	40,04
631,171	37,45
631,408	38,1
631,644	36,63
631,881	33,47
632,117	30,23
632,354	30,41
632,59	29,27
632,826	28,31
633,063	26,93
633,299	28
633,535	24,8
633,771	22,67
634,008	24,33
634,244	23,23
634,48	20,54
634,716	20,73
634,953	19,13
635,189	18,39
635,425	18,63
635,661	18,67
635,897	15,08
636,133	13,99
636,369	13,68
636,605	9,39
636,841	6,96
637,077	8,14
637,313	6,54
637,549	7,69
637,785	6,14
638,021	6,08
638,257	4,03
638,493	4,36
638,729	1,99
638,965	2,42
639,2	3,69
639,436	3,95
639,672	2,37
639,908	0,78
640,144	4,55
640,379	7,15
640,615	4,99
640,851	7,39
641,086	8,92
641,322	6,6
641,558	8,06
641,793	9,76
642,029	8,75
642,264	8,7
642,5	8,73
642,736	6,16
642,971	7
643,207	6,24
643,442	4,43
643,678	4,01
643,913	5,95
644,148	5,13
644,384	6,33
644,619	7,41
644,855	8,69
645,09	10,35
645,325	10,85
645,561	11,83
645,796	11,09
646,031	14,67
646,266	13,68
646,502	13,2
646,737	16,97
646,972	18,17
647,207	18,96
647,442	16,15
647,678	13,68
647,913	16,55
648,148	18,03
648,383	17,69
648,618	18,72
648,853	18,94
649,088	20,45
649,323	23,01
649,558	25,51
649,793	25,49
650,028	27,45
650,263	25,69
650,498	28,76
650,733	28,78
650,968	27,75
651,202	29,14
651,437	29,38
651,672	27,28
651,907	26,62
652,142	26,33
652,376	26,48
652,611	26,72
652,846	28,27
653,081	28,41
653,315	28,42
653,55	28,66
653,785	27,02
654,019	25
654,254	23,33
654,488	23,29
654,723	21,48
654,958	19,79
655,192	17,24
655,427	13,85
655,661	15,4
655,896	16,45
656,13	16,9
656,364	13,87
656,599	10,35
656,833	10,79
657,068	13
657,302	12,56
657,536	11,15
657,771	11,03
658,005	12,81
658,239	15,2
658,474	12,71
658,708	13,28
658,942	13,22
659,176	11,76
659,41	9,56
659,645	9,24
659,879	9,33
660,113	6,14
660,347	4,69
660,581	1,75
660,815	1,88
661,049	2,08
661,283	0,88
661,517	-0,06
661,751	0,21
661,985	-0,36
662,219	1,91
662,453	1,73
662,687	3,41
662,921	0,97
663,155	-0,61
663,389	-3,6
663,622	-5,11
663,856	-3,28
664,09	-5,06
664,324	-6
664,558	-6,12
664,791	-7,31
665,025	-7,53
665,259	-8,96
665,492	-9,78
665,726	-7,06
665,96	-7,98
666,193	-8,07
666,427	-6,28
666,661	-6,12
666,894	-7,46
667,128	-7,65
667,361	-4,6
667,595	-5,12
667,828	-5,52
668,062	-6,33
668,295	-4,77
668,529	-3,62
668,762	-2,53
668,995	-2,58
669,229	-0,38
669,462	-0,35
669,695	0,51
669,929	-0,49
670,162	-0,96
670,395	-1,24
670,629	-0,86
670,862	2,5
671,095	1,07
671,328	1,23
671,561	-0,35
671,795	0,56
672,028	3,01
672,261	3,15
672,494	5,08
672,727	3,45
672,96	3,41
673,193	2,9
673,426	6,01
673,659	5,59
673,892	7,44
674,125	7,72
674,358	8,09
674,591	6,58
674,824	8,56
675,057	8,71
675,29	8,6
675,523	9,7
675,755	8,79
675,988	8,42
676,221	9,43
676,454	8,54
676,687	8,66
676,919	7,59
677,152	6,71
677,385	7,33
677,617	8,63
677,85	8,88
678,083	6,28
678,315	7,4
678,548	6,58
678,78	5,18
679,013	4,29
679,246	4,09
679,478	4,06
679,711	1,69
679,943	2,98
680,175	1,71
680,408	5,18
680,64	1,71
680,873	2,41
681,105	2,26
681,338	5,52
681,57	3,82
681,802	4,41
682,034	3,47
682,267	6,29
682,499	8,94
682,731	6,47
682,964	5,68
683,196	5,58
683,428	4,13
683,66	4,01
683,892	7,82
684,124	9,87
684,356	13,33
684,589	12,79
684,821	10,24
685,053	10,9
685,285	12,33
685,517	14,19
685,749	15,01
685,981	17,04
686,213	18,24
686,445	19,58
686,676	18,61
686,908	19,8
687,14	19,38
687,372	20,75
687,604	18,64
687,836	19,47
688,068	19,01
688,299	19,02
688,531	16,71
688,763	20,06
688,995	18,91
689,226	21,2
689,458	20,19
689,69	17,35
689,921	15,75
690,153	16,36
690,384	18,16
690,616	18,7
690,848	18,56
691,079	13,98
691,311	11,92
691,542	9,52
691,774	9,63
692,005	13,01
692,237	14,41
692,468	13,54
692,699	13,73
692,931	13,98
693,162	11,72
693,393	10,35
693,625	8,8
693,856	9,78
694,087	9,31
694,319	9,81
694,55	9,61
694,781	8,44
695,012	8,64
695,243	8,31
695,475	7,02
695,706	6,89
695,937	5,73
696,168	5,64
696,399	4,96
696,63	3,63
696,861	4,74
697,092	9,46
697,323	11,11
697,554	10,11
697,785	9,95
698,016	11,11
698,247	10,24
698,478	10,98
698,709	11,61
698,94	12,3
699,171	10,84
699,401	8,56
699,632	10,42
699,863	7,07
700,094	7,02
700,325	8,7
700,555	9,26
700,786	8,99
701,017	10,32
701,247	11,2
701,478	10,61
701,709	9,52
701,939	10,52
702,17	11,37
702,401	13,29
702,631	14,45
702,862	13,94
703,092	12,47
703,323	15,46
703,553	17,09
703,784	18,73
704,014	19,44
704,244	16,84
704,475	17,16
704,705	19,37
704,936	19,81
705,166	19,34
705,396	22,04
705,627	23,8
705,857	24,69
706,087	26,17
706,317	25,69
706,548	25,31
706,778	25,05
707,008	26,74
707,238	27,05
707,468	27,25
707,698	26,69
707,928	27,82
708,158	26,33
708,389	25,95
708,619	26,67
708,849	26,13
709,079	26,37
709,309	25,7
709,539	24,97
709,768	25,93
709,998	27,47
710,228	28,05
710,458	26,77
710,688	23,27
710,918	23,28
711,148	20,92
711,378	20,94
711,607	20,03
711,837	19,74
712,067	18,93
712,297	18,37
712,526	17,27
712,756	16,14
712,986	13,66
713,215	10,23
713,445	10,08
713,674	9,8
713,904	7,88
714,134	8,79
714,363	7,18
714,593	5,53
714,822	4,65
715,052	4,18
715,281	4,3
715,511	2,85
715,74	1,19
715,969	0,6
716,199	-0,13
716,428	0,13
716,657	-1,53
716,887	-1,65
717,116	-3,06
717,345	-2,5
717,575	-2,15
717,804	-2,36
718,033	-3,85
718,262	-3,16
718,492	-2,2
718,721	-2,33
718,95	-3,97
719,179	-4,64
719,408	-4,27
719,637	-6,95
719,866	-9,1
720,095	-7,03
720,324	-5,72
720,553	-7,69
720,782	-7,35
721,011	-6,46
721,24	-9,22
721,469	-9,16
721,698	-8,17
721,927	-6,98
722,156	-8,13
722,385	-9,12
722,613	-6,79
722,842	-4,44
723,071	-1,21
723,3	0,71
723,529	-0,57
723,757	-0,07
723,986	-1,65
724,215	-3,04
724,443	-2,84
724,672	-0,81
724,901	0,99
725,129	3,1
725,358	5,44
725,586	3,24
725,815	3,1
726,043	1,56
726,272	-0,3
726,5	0,11
726,729	1,03
726,957	0,38
727,186	-2,32
727,414	-1,7
727,642	-0,29
727,871	0,22
728,099	-0,29
728,327	1,57
728,556	3,21
728,784	4,1
729,012	2,75
729,241	4,52
729,469	3,65
729,697	2,11
729,925	1,42
730,153	-1,03
730,381	-2,54
730,61	-2,03
730,838	-2,99
731,066	-2,73
731,294	-1,33
731,522	-3,28
731,75	-7,48
731,978	-8,83
732,206	-10,08
732,434	-11,67
732,662	-9,99
732,89	-11,53
733,118	-11,03
733,346	-10,53
733,573	-10,43
733,801	-9,62
734,029	-3,89
734,257	-0,95
734,485	1,13
734,712	2,96
734,94	1,17
735,168	3,46
735,396	3,18
735,623	1,41
735,851	2,18
736,078	4,04
736,306	3,14
736,534	4,3
736,761	3,69
736,989	2,07
737,216	2,77
737,444	2,26
737,671	3,47
737,899	7,37
738,126	6,45
738,354	6,71
738,581	7,54
738,809	9,04
739,036	8,37
739,263	8,42
739,491	6,63
739,718	4,88
739,945	7,33
740,173	8,66
740,4	9,11
740,627	7,36
740,854	7,79
741,081	5,07
741,309	2,16
741,536	-0,13
741,763	-1,24
741,99	0,78
742,217	0,48
742,444	-0
742,671	1,92
742,898	0,76
743,125	-2,31
743,352	-4,32
743,579	-5,13
743,806	-5,63
744,033	-3,63
744,26	-3,93
744,487	-4,29
744,714	-4,42
744,941	-5,66
745,167	-2,63
745,394	-3,84
745,621	-3,95
745,848	-5,38
746,075	-3,18
746,301	-0,77
746,528	2,46
746,755	2,9
746,981	2,71
747,208	3,53
747,435	5,82
747,661	6,68
747,888	7,17
748,114	5,41
748,341	8,75
748,567	9,34
748,794	7,93
749,02	7,86
749,247	6,06
749,473	5,02
749,7	3,99
749,926	3,38
750,152	7,59
750,379	9,67
750,605	10,12
750,831	11,14
751,058	9,98
751,284	8,4
751,51	10,87
751,737	11,61
751,963	10,59
752,189	10,23
752,415	9,8
752,641	10,19
752,867	10,36
753,094	7,68
753,32	6,73
753,546	5,65
753,772	7,59
753,998	6,59
754,224	5,84
754,45	3,99
754,676	4,05
754,902	3,49
755,128	3,43
755,354	1,99
755,579	3,78
755,805	4,93
756,031	2,7
756,257	1,29
756,483	2,87
756,709	2,49
756,934	3,09
757,16	-0,01
757,386	-0,09
757,612	-2,46
757,837	-3,89
758,063	-1,51
758,289	1,42
758,514	-0,68
758,74	-3,01
758,965	-5,21
759,191	-4,3
759,416	-3,08
759,642	-2,34
759,868	-1,01
760,093	1,94
760,318	0,27
760,544	0,89
760,769	0,62
760,995	1,39
761,22	0,79
761,445	2,78
761,671	3,63
761,896	4,35
762,121	5,1
762,347	5,36
762,572	1,99
762,797	2,9
763,022	3,45
763,248	8,11
763,473	7,37
763,698	5,98
763,923	6,08
764,148	6,9
764,373	6,58
764,598	9,94
764,823	11,68
765,048	9,32
765,273	5,96
765,498	6,15
765,723	6,12
765,948	7,66
766,173	5,21
766,398	5,82
766,623	3,21
766,848	3,7
767,073	1,75
767,298	2,5
767,522	1,89
767,747	0,97
767,972	0,62
768,197	1,8
768,421	0,62
768,646	-1,43
768,871	-2,96
769,095	-3,47
769,32	-3,68
769,545	-3,59
769,769	-4,06
769,994	-3,58
770,218	-5,82
770,443	-4,54
770,667	-2,73
770,892	-2,63
771,116	-4,27
771,341	-3,22
771,565	-4,25
771,79	-4,73
772,014	-5,66
772,238	-5,31
772,463	-4,57
772,687	-3,5
772,911	-4,21
773,136	-5,8
773,36	-4,72
773,584	-3,27
773,808	-6
774,033	-5,9
774,257	-6,8
774,481	-7,88
774,705	-8,77
774,929	-9,41
775,153	-9,22
775,377	-8,28
775,602	-8,14
775,826	-6,81
776,05	-4,51
776,274	-5,26
776,498	-5,85
776,722	-5,81
776,945	-4,94
777,169	-4,66
777,393	-5,57
777,617	-6,49
777,841	-5,63
778,065	-4,57
778,289	-5,16
778,512	-5,47
778,736	-4,98
778,96	-5,18
779,184	-2,88
779,407	-3,62
779,631	-3,85
779,855	-4,87
780,078	-3,7
780,302	-5,06
780,526	-6,5
780,749	-5,24
780,973	-3,19
781,196	-2,42
781,42	-4,7
781,643	-4,7
781,867	-4,13
782,09	-5,6
782,314	-5,69
782,537	-5,11
782,76	-6,53
782,984	-6,68
783,207	-7,35
783,431	-6,18
783,654	-6,9
783,877	-8,65
784,1	-9,93
784,324	-10,5
784,547	-11,45
784,77	-13,9
784,993	-14,63
785,216	-14,72
785,44	-15,07
785,663	-15,37
785,886	-13,21
786,109	-13,04
786,332	-13,31
786,555	-12,82
786,778	-10,13
787,001	-8,67
787,224	-8,47
787,447	-7,52
787,67	-7,4
787,893	-8,32
788,116	-7,29
788,339	-5,17
788,561	-4,96
788,784	-7,71
789,007	-8,23
789,23	-9,42
789,453	-10,46
789,675	-11,76
789,898	-12,87
790,121	-12,94
790,344	-12,77
790,566	-11,69
790,789	-10,82
791,012	-10,41
791,234	-8,9
791,457	-5,55
791,679	-5,11
791,902	-4,23
792,124	-5,49
792,347	-5,92
792,569	-5,98
792,792	-7,5
793,014	-6,79
793,237	-5,63
793,459	-5,15
793,681	-6,3
793,904	-7,49
794,126	-9,78
794,348	-9,86
794,571	-9,87
794,793	-10,76
795,015	-11,55
795,237	-12,71
795,46	-11,72
795,682	-10,94
795,904	-9,51
796,126	-10,06
796,348	-9,33
796,57	-5,74
796,792	-6,72
797,014	-4,43
797,237	-2,9
797,459	-2,51
797,681	-1,75
797,903	-3,57
798,124	-3,14
798,346	5,47
798,568	8,61
798,79	11,62
799,012	14,74
799,234	16,29
799,456	16,67
799,678	17,16
799,899	15,52
800,121	13,99
800,343	13,02
800,565	12,78
800,786	13,63
801,008	16,69
801,23	16,21
801,451	17,3
801,673	16,41
801,895	16,28
802,116	18,56
802,338	20,11
802,559	22,21
802,781	21,1
803,002	22,91
803,224	23,49
803,445	21,2
803,667	23,87
803,888	21,42
804,109	19,7
804,331	19,42
804,552	19,3
804,773	21,34
804,995	18,77
805,216	8,39
805,437	4,55
805,658	1,47
805,88	-1,29
806,101	-1,33
806,322	-0,75
806,543	-0,43
806,764	-2,13
806,985	-1,22
807,207	-0,58
807,428	-0
807,649	-2,49
807,87	-4,59
808,091	-2,96
808,312	-2,19
808,533	2,05
808,754	4,22
808,975	3,09
809,195	3,36
809,416	3,33
809,637	2,45
809,858	0,74
810,079	-0,82
810,3	0,56
810,52	-1,17
810,741	-2,36
810,962	-2,71
811,183	-3,8
811,403	-2,99
811,624	-3,11
811,845	-1,95
812,065	-2,32
812,286	-0,95
812,506	-0,77
812,727	-1,47
812,948	-1,76
813,168	-0,85
813,389	-1,59
813,609	0,25
813,83	-0,07
814,05	-1,29
814,27	-0,61
814,491	2,21
814,711	1,43
814,931	-1,91
815,152	-2,66
815,372	-5,22
815,592	-6,77
815,813	-7,3
816,033	-7,84
816,253	-8,04
816,473	-8,87
816,694	-8,47
816,914	-6,3
817,134	-6,49
817,354	-6,27
817,574	-4,81
817,794	-4,65
818,014	-5,78
818,234	-6,84
818,454	-7,03
818,674	-7,91
818,894	-8,78
819,114	-6,63
819,334	-5,46
819,554	-3
819,774	-0,58
819,994	-2,28
820,214	-2,7
820,433	-3,23
820,653	-3,13
820,873	-0,46
821,093	-1,59
821,312	-3,82
821,532	-1,94
821,752	1,21
821,972	-0,42
822,191	1,33
822,411	-0,93
822,63	-0,93
822,85	-2,37
823,07	-4,22
823,289	-2,49
823,509	-3,8
823,728	-3,1
823,948	-3,57
824,167	-5,33
824,387	-5,99
824,606	-5,69
824,825	-6,35
825,045	-5,81
825,264	-7,02
825,483	-5,92
825,703	-4,73
825,922	-7,16
826,141	-7,64
826,361	-8,61
826,58	-10,36
826,799	-11,61
827,018	-10,9
827,237	-10,49
827,456	-8,88
827,676	-10,04
827,895	-8,68
828,114	-6,7
828,333	-6,89
828,552	-6,35
828,771	-5,11
828,99	-6,46
829,209	-4,49
829,428	-1,61
829,647	-1,86
829,866	-0,21
830,084	-0,15
830,303	0,45
830,522	0,08
830,741	-0,44
830,96	1,33
831,179	1,84
831,397	1,04
831,616	2,52
831,835	1,51
832,053	4,12
832,272	3,54
832,491	4,34
832,709	3,32
832,928	2,77
833,147	2,64
833,365	1,83
833,584	3,99
833,802	5,04
834,021	4,84
834,239	5,28
834,458	4,01
834,676	2,63
834,894	1,05
835,113	0,77
835,331	-0,44
835,55	-1,52
835,768	-2,06
835,986	-1,34
836,204	-3,84
836,423	-3,09
836,641	-4,83
836,859	-6,81
837,077	-5,64
837,296	-6,02
837,514	-6,97
837,732	-7,76
837,95	-8,47
838,168	-5,71
838,386	-7,15
838,604	-5,73
838,822	-7,43
839,04	-8,06
839,258	-7,32
839,476	-5,11
839,694	-4,51
839,912	-4,49
840,13	-3,83
840,348	-1,28
840,566	-2,58
840,783	-1,3
841,001	-3,73
841,219	-2,44
841,437	-2,91
841,655	-1,12
841,872	-2,53
842,09	-3,86
842,308	-2,9
842,525	-2,18
842,743	-2,67
842,961	-2,65
843,178	-3,76
843,396	-0,36
843,613	1,9
843,831	1,4
844,048	0,66
844,266	0,05
844,483	-0,61
844,701	-0,7
844,918	-2,48
845,136	-2,28
845,353	-2,64
845,57	-1,58
845,788	0,43
846,005	-1,96
846,222	-3,28
846,439	-2,56
846,657	-2,74
846,874	-4,26
847,091	-7,12
847,308	-7,21
847,526	-8,14
847,743	-8,04
847,96	-9,96
848,177	-9,82
848,394	-10,03
848,611	-9,91
848,828	-9,36
849,045	-9,95
849,262	-10,19
849,479	-9,31
849,696	-10,14
849,913	-11,03
850,13	-14,72
850,347	-13,85
850,564	-13,3
850,78	-13,69
850,997	-14,25
851,214	-13,81
851,431	-13,43
851,647	-14,17
851,864	-13,27
852,081	-12,8
852,298	-15,85
852,514	-16,69
852,731	-15,15
852,948	-14,04
853,164	-14,49
853,381	-15,3
853,597	-15,31
853,814	-16,31
854,03	-16,93
854,247	-15,87
854,463	-14,95
854,68	-14,04
854,896	-12,7
855,113	-13,04
855,329	-12
855,545	-9,43
855,762	-10,47
855,978	-13,41
856,194	-15,83
856,411	-12,73
856,627	-11,28
856,843	-10,32
857,059	-8,48
857,275	-9,08
857,492	-7,22
857,708	-3,35
857,924	-2,66
858,14	-1,62
858,356	-1,86
858,572	-1,12
858,788	-1,29
859,004	0,48
859,22	-0,36
859,436	-0,15
859,652	-1,11
859,868	-2,23
860,084	-1,21
860,3	-1,33
860,516	-1,67
860,731	-2,03
860,947	-4,42
861,163	-4,1
861,379	-2,92
861,595	-1,98
861,81	-1,43
862,026	-0,94
862,242	-1,99
862,457	-0,58
862,673	2,11
862,889	2,66
863,104	0,63
863,32	1,58
863,535	1,84
863,751	-1,94
863,966	-1,21
864,182	-1,78
864,397	-3,05
864,613	-4,77
864,828	-5,12
865,044	-4,02
865,259	-2,47
865,474	-4,05
865,69	-3,61
865,905	-2,21
866,12	-3,66
866,336	-4,34
866,551	-3,08
866,766	-3,73
866,981	-3,57
867,196	-2,37
867,412	-2,51
867,627	-2,37
867,842	-2,37
868,057	-3,32
868,272	-4,03
868,487	-5,67
868,702	-8,23
868,917	-8,83
869,132	-8,33
869,347	-8,6
869,562	-9,09
869,777	-8,65
869,992	-9,7
870,207	-9,62
870,422	-10,53
870,636	-11,87
870,851	-13,37
871,066	-16,05
871,281	-14,95
871,495	-15,89
871,71	-14,26
871,925	-17,37
872,14	-16,87
872,354	-17,22
872,569	-18,54
872,783	-15,11
872,998	-15,22
873,213	-15,14
873,427	-13,87
873,642	-12,74
873,856	-13,98
874,071	-12,91
874,285	-13,27
874,5	-15,37
874,714	-16,65
874,928	-17,55
875,143	-17,9
875,357	-16,97
875,571	-18,55
875,786	-18,17
876	-16,59
876,214	-15,56
876,429	-17,45
876,643	-17,2
876,857	-17,51
877,071	-16,09
877,285	-16,87
877,499	-17,88
877,714	-14,52
877,928	-12,83
878,142	-12,98
878,356	-15,18
878,57	-13,86
878,784	-12,69
878,998	-12,62
879,212	-10,42
879,426	-14,06
879,639	-11,16
879,853	-13,24
880,067	-13,5
880,281	-14,15
880,495	-11,88
880,709	-10,25
880,922	-8,92
881,136	-8,06
881,35	-6,09
881,564	-5,91
881,777	-7,2
881,991	-6,08
882,205	-3,86
882,418	-4,27
882,632	-5,15
882,845	-5,11
883,059	-2,74
883,273	-3
883,486	-2,9
883,7	-0,43
883,913	1,42
884,126	1,95
884,34	-0,83
884,553	-3,05
884,767	0,3
884,98	1,31
885,193	0,9
885,407	0,01
885,62	0,74
885,833	0,88
886,046	1,9
886,26	0,29
886,473	0,83
886,686	1,32
886,899	2,25
887,112	-0,4
887,326	-2,36
887,539	-1,54
887,752	0,21
887,965	-1,41
888,178	-0,63
888,391	-0,07
888,604	-1,33
888,817	-2,01
889,03	-1,49
889,243	-3,93
889,455	-6,09
889,668	-7,93
889,881	-5,6
890,094	-5,52
890,307	-7,7
890,52	-7,81
890,732	-6,44
890,945	-5,77
891,158	-5,52
891,37	-7,75
891,583	-8,43
891,796	-8,34
892,008	-8,77
892,221	-10,11
892,434	-14,8
892,646	-15,32
892,859	-15,97
893,071	-14,54
893,284	-13,77
893,496	-14,49
893,709	-12,75
893,921	-12,38
894,133	-13,27
894,346	-14,3
894,558	-14,82
894,771	-16,73
894,983	-14,25
895,195	-12,41
895,407	-11,8
895,62	-13,83
895,832	-13,33
896,044	-11,68
896,256	-11,98
896,468	-13,98
896,681	-12,72
896,893	-12,56
897,105	-12,51
897,317	-14,45
897,529	-13,29
897,741	-11,46
897,953	-10,24
898,165	-10,72
898,377	-12,09
898,589	-11,85
898,801	-12,19
899,013	-9,09
899,224	-7,81
899,436	-6,17
899,648	-7,69
899,86	-8,39
900,072	-6,12
900,283	-6,78
900,495	-5,99
900,707	-4,7
900,919	-6,12
901,13	-4,61
901,342	-4,14
901,554	-5,38
901,765	-5,52
901,977	-7,48
902,188	-7,2
902,4	-7,29
902,611	-7,49
902,823	-7,89
903,034	-9,45
903,246	-11,5
903,457	-10,98
903,669	-11,15
903,88	-10,29
904,091	-10,57
904,303	-10,84
904,514	-12,53
904,725	-11,02
904,936	-9,33
905,148	-8,99
905,359	-7,13
905,57	-6,18
905,781	-6,81
905,992	-8,05
906,204	-7,18
906,415	-7,98
906,626	-10,88
906,837	-7,93
907,048	-7,99
907,259	-9,61
907,47	-10,97
907,681	-11,58
907,892	-9,98
908,103	-10,36
908,314	-12,29
908,525	-11,15
908,735	-9,89
908,946	-10,81
909,157	-11,93
909,368	-9,57
909,579	-8,1
909,789	-8,48
910	-9,91
910,211	-9,33
910,421	-10,32
910,632	-8,84
910,843	-11,07
911,053	-8,18
911,264	-7,67
911,475	-8,21
911,685	-8,12
911,896	-7,67
912,106	-7,85
912,317	-9,31
912,527	-7,12
912,737	-5,98
912,948	-4,65
913,158	-4,54
913,369	-7,82
913,579	-7,59
913,789	-6,94
914	-3,33
914,21	-3,86
914,42	-4,09
914,63	-2,92
914,841	-1,9
915,051	-0,76
915,261	-1,1
915,471	1,2
915,681	2,66
915,891	1,55
916,101	0,19
916,311	0,38
916,521	1,99
916,731	2,52
916,941	5,22
917,151	3,33
917,361	5,18
917,571	1,58
917,781	1,13
917,991	-1,44
918,201	-0,95
918,411	-3,78
918,621	-4,74
918,83	-3,87
919,04	-5,43
919,25	-5,18
919,46	-4,99
919,669	-6,5
919,879	-6,01
920,089	-6,88
920,298	-7,27
920,508	-7,85
920,717	-6,85
920,927	-8,12
921,136	-7,62
921,346	-8,24
921,555	-9,91
921,765	-9,9
921,974	-11,83
922,184	-13,87
922,393	-13,68
922,603	-13,89
922,812	-11,66
923,021	-13,49
923,23	-15,05
923,44	-17,34
923,649	-17,04
923,858	-17,51
924,067	-17,87
924,277	-19,74
924,486	-18,19
924,695	-19,04
924,904	-16,75
925,113	-16,58
925,322	-14,43
925,531	-13,98
925,74	-15,7
925,949	-17,64
926,158	-14,65
926,367	-15,01
926,576	-13,41
926,785	-15,35
926,994	-16,82
927,203	-17,22
927,412	-16,57
927,621	-17,42
927,83	-16,28
928,038	-17,52
928,247	-18,26
928,456	-17,51
928,665	-16,9
928,873	-15,39
929,082	-13,56
929,291	-13,44
929,499	-12,83
929,708	-13,24
929,916	-12,06
930,125	-13,7
930,333	-14,73
930,542	-11,77
930,75	-9,48
930,959	-8,39
931,167	-8,4
931,376	-9,36
931,584	-8,24
931,793	-8,79
932,001	-10,19
932,209	-11,76
932,418	-12,1
932,626	-13,63
932,834	-14,13
933,042	-16,88
933,251	-16,08
933,459	-15,53
933,667	-15,42
933,875	-15,27
934,083	-14,26
934,291	-12,65
934,499	-8,96
934,707	-9,18
934,915	-8,6
935,123	-6,16
935,331	-8,05
935,539	-9,72
935,747	-11,86
935,955	-11,58
936,163	-10,45
936,371	-10,15
936,579	-8,55
936,787	-8,5
936,995	-9,57
937,202	-11,41
937,41	-10,89
937,618	-11,78
937,826	-12,41
938,033	-15,72
938,241	-17,44
938,449	-15,12
938,656	-13,04
938,864	-12,84
939,071	-14
939,279	-11,94
939,486	-10,07
939,694	-10,98
939,901	-11,79
940,109	-10,63
940,316	-10,48
940,524	-12,95
940,731	-14,46
940,939	-15,65
941,146	-16,02
941,353	-16,09
941,561	-17,23
941,768	-17,26
941,975	-16,28
942,182	-16,22
942,39	-15,61
942,597	-13,18
942,804	-14,82
943,011	-15,56
943,218	-14,43
943,425	-14,8
943,632	-14,41
943,839	-15,79
944,046	-17,05
944,253	-16,04
944,46	-15,7
944,667	-13,43
944,874	-14,55
945,081	-13,94
945,288	-12,6
945,495	-8,98
945,702	-9,91
945,909	-11,5
946,115	-9,69
946,322	-9,56
946,529	-11,4
946,736	-12,9
946,942	-11,23
947,149	-13,22
947,356	-14,47
947,562	-15,57
947,769	-15,62
947,976	-16,14
948,182	-14,1
948,389	-14,3
948,595	-13,89
948,802	-14,06
949,008	-15,84
949,215	-13,65
949,421	-12,6
949,628	-14
949,834	-13,53
950,04	-13,98
950,247	-10,39
950,453	-7,39
950,659	-9,31
950,865	-7,89
951,072	-12,05
951,278	-10,55
951,484	-10,79
951,69	-13,46
951,896	-16,06
952,103	-16,84
952,309	-14,51
952,515	-13,86
952,721	-12,31
952,927	-10,77
953,133	-10,76
953,339	-11,59
953,545	-10,46
953,751	-9,43
953,957	-7,12
954,163	-8,68
954,369	-7,88
954,574	-9,64
954,78	-9,47
954,986	-8,88
955,192	-8,65
955,398	-10,63
955,603	-12,4
955,809	-11,06
956,015	-10,23
956,22	-10,16
956,426	-9,34
956,632	-12,53
956,837	-14,13
957,043	-12,58
957,248	-11,77
957,454	-10,21
957,66	-11,84
957,865	-12,18
958,07	-10,66
958,276	-10,39
958,481	-10,36
958,687	-11,83
958,892	-11,76
959,097	-12,01
959,303	-12,38
959,508	-13,07
959,713	-12,95
959,919	-14,03
960,124	-14,11
960,329	-13,48
960,534	-10,47
960,739	-10,21
960,945	-9,14
961,15	-10,36
961,355	-11,69
961,56	-13,59
961,765	-14,56
961,97	-14,36
962,175	-13,76
962,38	-16,66
962,585	-17,38
962,79	-19,26
962,995	-20,09
963,2	-20,74
963,404	-21,51
963,609	-24,13
963,814	-24,75
964,019	-26,59
964,224	-28,55
964,428	-28,63
964,633	-27,52
964,838	-26,22
965,042	-26,01
965,247	-28,07
965,452	-28,64
965,656	-27,86
965,861	-26,9
966,066	-28,64
966,27	-25,84
966,475	-23,24
966,679	-26,47
966,884	-26,9
967,088	-28,82
967,292	-28,79
967,497	-27,85
967,701	-27,89
967,906	-26,44
968,11	-23,14
968,314	-21
968,518	-22,44
968,723	-19,95
968,927	-17,69
969,131	-15,66
969,335	-12,81
969,539	-12,08
969,744	-10,97
969,948	-8,33
970,152	-6,44
970,356	-5,84
970,56	-4,85
970,764	-6,34
970,968	-5,47
971,172	-5,66
971,376	-6,37
971,58	-4,22
971,784	-3,2
971,988	-4,46
972,192	-2,7
972,395	-1,76
972,599	-4,05
972,803	-6,06
973,007	-4,17
973,21	-4,55
973,414	-5,31
973,618	-5,02
973,822	-4,2
974,025	-3,35
974,229	-3,25
974,432	-5,82
974,636	-8,01
974,84	-6,6
975,043	-7,43
975,247	-9,5
975,45	-11,01
975,654	-10,25
975,857	-8,66
976,06	-8,81
976,264	-10,26
976,467	-10,04
976,671	-9,79
976,874	-8,74
977,077	-8,4
977,28	-8,86
977,484	-9,61
977,687	-8,87
977,89	-8,56
978,093	-10,69
978,297	-10,22
978,5	-11,62
978,703	-10,89
978,906	-9,61
979,109	-10,03
979,312	-9,12
979,515	-8,71
979,718	-7,93
979,921	-9,17
980,124	-10,8
980,327	-11,75
980,53	-12,03
980,733	-9,77
980,936	-6,9
981,138	-8,68
981,341	-6,85
981,544	-6,28
981,747	-6,84
981,949	-8,59
982,152	-8,9
982,355	-9,45
982,558	-7,38
982,76	-10,38
982,963	-11,26
983,165	-10,99
983,368	-9,24
983,571	-10,2
983,773	-9,26
983,976	-8,5
984,178	-6,53
984,381	-5,95
984,583	-7,33
984,785	-6,51
984,988	-5,17
985,19	-4,77
985,392	-5
985,595	-7,02
985,797	-7,22
985,999	-4,43
986,202	-3,09
986,404	-3,4
986,606	-0,31
986,808	-1,24
987,01	-1,06
987,212	-2,62
987,415	-3,94
987,617	-3,93
987,819	-3,66
988,021	-2,22
988,223	-3,61
988,425	-4,34
988,627	-5,03
988,829	-7,2
989,031	-5,6
989,232	-6,27
989,434	-5,58
989,636	-7,01
989,838	-7,75
990,04	-6,24
990,242	-8,64
990,443	-11,12
990,645	-9,68
990,847	-8,08
991,048	-8,33
991,25	-10,28
991,452	-9,2
991,653	-10,55
991,855	-11,26
992,057	-11,75
992,258	-12,36
992,46	-12,54
992,661	-11,91
992,863	-12,88
993,064	-11
993,265	-12,82
993,467	-13,56
993,668	-11,82
993,87	-12,84
994,071	-12,88
994,272	-12,37
994,473	-10,28
994,675	-10,21
994,876	-9,33
995,077	-10,25
995,278	-9,61
995,48	-8,09
995,681	-10,04
995,882	-8,12
996,083	-8,31
996,284	-12,08
996,485	-11,69
996,686	-13,04
996,887	-13,59
997,088	-16,3
997,289	-17,11
997,49	-16,25
997,691	-16,51
997,892	-16,09
998,092	-12,4
998,293	-13,1
998,494	-12,81
998,695	-12,71
998,896	-11,06
999,096	-11,2
999,297	-11,87
999,498	-12,2
999,698	-13,57
999,899	-15,67
1000,1	-16,71
1000,3	-16,48
1000,501	-16,51
1000,701	-17,25
1000,902	-16,75
1001,102	-15,91
1001,303	-12,97
1001,503	-13,93
1001,704	-13,6
1001,904	-14,13
1002,105	-14,61
1002,305	-14,3
1002,505	-15,05
1002,706	-14,34
1002,906	-12,88
1003,106	-13,93
1003,306	-11,94
1003,507	-11,84
1003,707	-12,2
1003,907	-10,94
1004,107	-10,08
1004,307	-12,04
1004,507	-9,47
1004,707	-9,45
1004,907	-11,54
1005,107	-13,3
1005,308	-13,9
1005,507	-14,99
1005,707	-11,48
1005,907	-11,76
1006,107	-9,71
1006,307	-8,09
1006,507	-8,85
1006,707	-9,8
1006,907	-8,77
1007,106	-9,6
1007,306	-10,96
1007,506	-11,87
1007,706	-12,72
1007,905	-14,08
1008,105	-14,38
1008,305	-15,21
1008,504	-13,55
1008,704	-8,6
1008,903	-8,56
1009,103	-8,35
1009,303	-9,69
1009,502	-8,9
1009,702	-9,63
1009,901	-9,63
1010,1	-13,27
1010,3	-11,17
1010,499	-11,71
1010,699	-14
1010,898	-16,83
1011,097	-15,48
1011,296	-14,62
1011,496	-15,07
1011,695	-15,07
1011,894	-18,06
1012,093	-14,85
1012,293	-14,76
1012,492	-15,66
1012,691	-16,09
1012,89	-16,24
1013,089	-19,34
1013,288	-17,56
1013,487	-16,26
1013,686	-14,39
1013,885	-14,28
1014,084	-13,39
1014,283	-11,78
1014,482	-11,69
1014,681	-12,29
1014,88	-15,07
1015,078	-14,1
1015,277	-15,93
1015,476	-15,22
1015,675	-15,97
1015,873	-14,63
1016,072	-15,3
1016,271	-12,56
1016,47	-16,43
1016,668	-14,67
1016,867	-15,57
1017,065	-15,8
1017,264	-16,08
1017,463	-14,63
1017,661	-14,8
1017,86	-15,57
1018,058	-14,81
1018,256	-16,36
1018,455	-17,45
1018,653	-15,58
1018,852	-14,32
1019,05	-15,54
1019,248	-14,93
1019,447	-15,94
1019,645	-16,52
1019,843	-19,75
1020,041	-18,19
1020,24	-18,57
1020,438	-17,01
1020,636	-17,08
1020,834	-18,75
1021,032	-17,92
1021,23	-18,85
1021,428	-17,97
1021,626	-15,27
1021,824	-14,07
1022,022	-14,8
1022,22	-11,96
1022,418	-10,82
1022,616	-10,46
1022,814	-11,66
1023,012	-11,39
1023,21	-9,5
1023,408	-9,63
1023,606	-11,97
1023,803	-6,79
1024,001	-5,85
1024,199	-8,67
1024,397	-7,4
1024,594	-7,32
1024,792	-9,48
1024,99	-9,3
1025,187	-8,51
1025,385	-6,28
1025,582	-6,26
1025,78	-5,99
1025,977	-4,49
1026,175	-4,27
1026,372	-4,01
1026,57	-5,98
1026,767	-4,54
1026,965	-3,4
1027,162	-2,62
1027,359	-2,29
1027,557	-0,94
1027,754	-3,09
1027,951	-5,98
1028,148	-4,06
1028,346	-5,91
1028,543	-8,44
1028,74	-8,6
1028,937	-10,16
1029,134	-9,98
1029,331	-10,34
1029,528	-10,31
1029,725	-9,81
1029,923	-13,89
1030,12	-11,1
1030,317	-9,67
1030,513	-9,28
1030,71	-8,73
1030,907	-7,03
1031,104	-7,56
1031,301	-7,29
1031,498	-7,73
1031,695	-9,31
1031,892	-10,63
1032,088	-9,57
1032,285	-10,96
1032,482	-11,82
1032,678	-13,05
1032,875	-14,24
1033,072	-13,5
1033,268	-14,82
1033,465	-15,53
1033,662	-17,95
1033,858	-18,14
1034,055	-16,56
1034,251	-14,43
1034,448	-15,87
1034,644	-14,99
1034,84	-12,48
1035,037	-10,07
1035,233	-9,59
1035,43	-8,9
1035,626	-9,65
1035,822	-9,28
1036,019	-10,51
1036,215	-13,68
1036,411	-12,71
1036,607	-13,77
1036,803	-15,33
1037	-15,79
1037,196	-18,08
1037,392	-18,86
1037,588	-19,47
1037,784	-17,9
1037,98	-17,87
1038,176	-20,4
1038,372	-21,15
1038,568	-19,04
1038,764	-17,94
1038,96	-17,18
1039,156	-17,63
1039,352	-17,7
1039,547	-16,75
1039,743	-16,78
1039,939	-14,97
1040,135	-14,77
1040,331	-18,3
1040,526	-16,93
1040,722	-17,64
1040,918	-19,37
1041,113	-21,79
1041,309	-22,2
1041,505	-24,68
1041,7	-23,65
1041,896	-24,37
1042,091	-24,62
1042,287	-24,34
1042,482	-24,78
1042,678	-25,55
1042,873	-24,85
1043,069	-25,54
1043,264	-24,01
1043,459	-23,03
1043,655	-23,5
1043,85	-24,3
1044,045	-23,03
1044,24	-21,99
1044,436	-19,61
1044,631	-21,33
1044,826	-21,42
1045,021	-22,83
1045,216	-24,16
