Data from mesure_FLMT021711__12__34.txt Node

Date: Mon Nov 04 11:52:11 CET 2024
User: jordan.swietlicki
Spectrometer: FLMT02171
Trigger mode: 0
Integration Time (sec): 1,000000E-1
Scans to average: 15
Electric dark correction enabled: true
Nonlinearity correction enabled: false
Boxcar width: 15
XAxis mode: Wavelengths
Number of Pixels in Spectrum: 3648
>>>>>Begin Spectral Data<<<<<
194,7	-42,633
194,9	-42,044
195,2	-37,059
195,5	-36,007
195,7	-32,559
196	-31,744
196,2	-30,934
196,5	-32,202
196,8	-30,354
197	-29,234
197,3	-28,982
197,6	-25,844
197,8	-25,957
198,1	-24,868
198,4	-23,303
198,6	-22,755
198,9	-18,705
199,2	-13,64
199,4	-8,956
199,7	-2,39
200	-2,265
200,2	-4,343
200,5	-4,471
200,7	-5,105
201	-3,857
201,3	-3,898
201,5	-3,272
201,8	-3,611
202,1	-2,442
202,3	-2,657
202,6	-2,744
202,9	-3,623
203,1	-2,31
203,4	-3,495
203,7	-3,702
203,9	-4,611
204,2	-3,853
204,5	-3,257
204,7	-1,3
205	-0,745
205,2	-0,244
205,5	0,605
205,8	0,168
206	3,988
206,3	4,927
206,6	6,409
206,8	7,254
207,1	7,741
207,4	8,593
207,6	11,818
207,9	12,002
208,2	12,444
208,4	13,164
208,7	13,96
208,9	15,947
209,2	15,74
209,5	15,808
209,7	16,219
210	16,736
210,3	16,845
210,5	18,459
210,8	18,783
211,1	19,73
211,3	19,451
211,6	18,678
211,9	19,628
212,1	20,179
212,4	19,662
212,6	20,36
212,9	20,533
213,2	18,478
213,4	19,575
213,7	19,855
214	19,428
214,2	15,755
214,5	15,928
214,8	15,053
215	14,631
215,3	17,252
215,5	18,384
215,8	16,49
216,1	16,034
216,3	16,34
216,6	16,117
216,9	16,253
217,1	16,539
217,4	15,366
217,7	15,438
217,9	12,655
218,2	12,527
218,5	11,851
218,7	10,773
219	10,456
219,2	11,218
219,5	12,334
219,8	12,923
220	12,481
220,3	13,107
220,6	13,752
220,8	12,757
221,1	12,474
221,4	12,949
221,6	12,157
221,9	13,319
222,1	12,734
222,4	13,507
222,7	14,378
222,9	11,674
223,2	10,716
223,5	8,54
223,7	8,661
224	7,835
224,2	7,888
224,5	8,174
224,8	8,023
225	7,665
225,3	7,288
225,6	7,59
225,8	8,567
226,1	11,063
226,4	10,298
226,6	9,57
226,9	10,901
227,1	11,878
227,4	11,29
227,7	10,26
227,9	9,819
228,2	10,26
228,5	8,808
228,7	8,823
229	8,502
229,3	8,857
229,5	11,735
229,8	11,572
230	10,505
230,3	9,336
230,6	9,641
230,8	7,873
231,1	10,135
231,4	10,362
231,6	14,51
231,9	13,65
232,1	14,801
232,4	13,443
232,7	13,598
232,9	13,19
233,2	11,995
233,5	11,097
233,7	12,244
234	11,478
234,2	9,374
234,5	10,154
234,8	11,912
235	10,256
235,3	9,702
235,6	10,011
235,8	10,068
236,1	10,886
236,4	10,524
236,6	12,998
236,9	13,496
237,1	14,178
237,4	14,514
237,7	11,007
237,9	9,411
238,2	7,699
238,5	9,528
238,7	8,604
239	8,714
239,2	7,45
239,5	8,77
239,8	5,572
240	4,742
240,3	6,217
240,6	6,884
240,8	6,224
241,1	6,896
241,3	6,594
241,6	6,232
241,9	4,467
242,1	4,701
242,4	5,972
242,7	5,515
242,9	4,878
243,2	5,493
243,4	5,847
243,7	5,357
244	4,772
244,2	5,131
244,5	4,769
244,8	4,048
245	3,988
245,3	4,837
245,5	3,392
245,8	4,128
246,1	4,659
246,3	5,349
246,6	5,278
246,9	7,077
247,1	7,48
247,4	9,189
247,6	10,878
247,9	10,984
248,2	11,629
248,4	8,759
248,7	8,529
248,9	8,076
249,2	7,929
249,5	9,366
249,7	9,811
250	8,857
250,3	8,842
250,5	8,306
250,8	9,788
251	8,563
251,3	8,947
251,6	9,939
251,8	9,359
252,1	8,815
252,4	6,99
252,6	6,96
252,9	5,806
253,1	5,421
253,4	3,388
253,7	4,433
253,9	5,972
254,2	7,152
254,4	7,043
254,7	6,587
255	6,918
255,2	8,299
255,5	6,594
255,8	5,312
256	5,768
256,3	5,617
256,5	5,942
256,8	6,066
257,1	7,039
257,3	6,224
257,6	6,387
257,8	7,435
258,1	9,377
258,4	10,215
258,6	10,78
258,9	10,886
259,2	10,663
259,4	9,868
259,7	8,035
259,9	7,062
260,2	8,246
260,5	9,049
260,7	9,264
261	8,386
261,2	7,65
261,5	8,442
261,8	7,382
262	8,174
262,3	7,322
262,6	7,511
262,8	7,043
263,1	6,485
263,3	4,682
263,6	5,964
263,9	5,063
264,1	4,388
264,4	5,791
264,6	6,059
264,9	5,489
265,2	5,712
265,4	5,365
265,7	5,67
266	3,841
266,2	4,607
266,5	3,569
266,7	2,057
267	-0,704
267,3	-0,157
267,5	1,08
267,8	2,751
268	3,777
268,3	3,479
268,6	2,513
268,8	4,331
269,1	3,019
269,3	2,295
269,6	2,11
269,9	2,906
270,1	0,839
270,4	1,752
270,6	2,415
270,9	1,748
271,2	0,831
271,4	-0,994
271,7	-3,295
272	-3,864
272,2	-2,084
272,5	-3,57
272,7	-2,344
273	-0,579
273,3	0,058
273,5	1,85
273,8	0,413
274	2,114
274,3	0,073
274,6	-0,146
274,8	2,174
275,1	4,769
275,3	5,753
275,6	5,199
275,9	4,06
276,1	5,436
276,4	5,621
276,6	6,96
276,9	5,561
277,2	7,884
277,4	7,646
277,7	9,902
277,9	9,788
278,2	10,226
278,5	11,569
278,7	11,546
279	11,64
279,2	11,618
279,5	13,039
279,8	14,375
280	15,106
280,3	12,1
280,5	11,655
280,8	11,003
281,1	9,679
281,3	11,127
281,6	9,551
281,9	11,648
282,1	10,539
282,4	10,581
282,6	12,398
282,9	11,572
283,2	10,049
283,4	9,253
283,7	8,906
283,9	9,151
284,2	8,857
284,5	8,042
284,7	6,628
285	6,017
285,2	4,904
285,5	6,258
285,8	4,335
286	8,438
286,3	8,914
286,5	7,288
286,8	7,213
287,1	8,51
287,3	8,634
287,6	8,042
287,8	8,442
288,1	7,307
288,4	8,325
288,6	10,313
288,9	10,347
289,1	10,826
289,4	7,767
289,7	9,166
289,9	6,786
290,2	8,25
290,4	10,286
290,7	8,491
290,9	7,099
291,2	7,363
291,5	9,445
291,7	10,52
292	10,863
292,2	9,819
292,5	11,222
292,8	12,768
293	12,511
293,3	13,322
293,5	14,876
293,8	15,102
294,1	12,006
294,3	10,916
294,6	10,547
294,8	11,086
295,1	10,49
295,4	9,819
295,6	9,97
295,9	10,539
296,1	10,052
296,4	10,66
296,7	7,571
296,9	8,023
297,2	6,379
297,4	7,05
297,7	5,666
298	7,118
298,2	6,104
298,5	6,364
298,7	7,514
299	9,034
299,3	9,396
299,5	7,465
299,8	6,877
300	7,477
300,3	7,748
300,5	7,643
300,8	6,424
301,1	8,453
301,3	9,166
301,6	6,998
301,8	4,942
302,1	3,958
302,4	4,478
302,6	4,324
302,9	4,441
303,1	3,999
303,4	5,353
303,7	6,571
303,9	4,916
304,2	5,187
304,4	4,531
304,7	6,062
304,9	3,735
305,2	6,756
305,5	7,386
305,7	7,33
306	7,948
306,2	8,966
306,5	8,416
306,8	7,48
307	4,874
307,3	4,678
307,5	4,131
307,8	3,038
308,1	1,208
308,3	2,008
308,6	0,914
308,8	1,71
309,1	1,989
309,3	2,223
309,6	2,238
309,9	4,987
310,1	5,187
310,4	6,519
310,6	7,345
310,9	6,443
311,2	6,975
311,4	6,545
311,7	5,976
311,9	6,538
312,2	7,311
312,5	6,828
312,7	7,692
313	8,408
313,2	7,265
313,5	6,673
313,7	5,908
314	4,946
314,3	3,935
314,5	5,685
314,8	7,103
315	9,487
315,3	8,042
315,6	7,654
315,8	7,854
316,1	8,431
316,3	7,39
316,6	8,559
316,8	7,82
317,1	5,998
317,4	4,203
317,6	3,577
317,9	2,736
318,1	2,347
318,4	1,578
318,6	0,948
318,9	0,326
319,2	-0,7
319,4	-1,119
319,7	-1,971
319,9	-2,337
320,2	-1,978
320,5	-1,122
320,7	-1,349
321	-1,284
321,2	-2,193
321,5	-1,443
321,7	0,066
322	1,586
322,3	0,812
322,5	-0,813
322,8	-2,921
323	-3,419
323,3	-1,232
323,5	-0,183
323,8	1,073
324,1	1,216
324,3	1,97
324,6	1,073
324,8	2,627
325,1	1,495
325,4	3,241
325,6	5,025
325,9	5,025
326,1	6,394
326,4	5,719
326,6	5,153
326,9	6,24
327,2	6,809
327,4	7,431
327,7	8,186
327,9	9,966
328,2	10,113
328,4	9,773
328,7	11,467
329	12,21
329,2	12,734
329,5	11,75
329,7	11,833
330	11,29
330,2	13,3
330,5	14,039
330,8	14,258
331	14,737
331,3	13,096
331,5	13,066
331,8	11,625
332	11,452
332,3	9,626
332,6	9,472
332,8	8,197
333,1	9,755
333,3	9,838
333,6	10,098
333,8	10,415
334,1	9,985
334,4	9,649
334,6	8,857
334,9	7,503
335,1	7,925
335,4	6,504
335,6	7,699
335,9	5,157
336,2	3,716
336,4	3,038
336,7	0,865
336,9	2,068
337,2	1,834
337,4	2,706
337,7	2,189
338	-0,851
338,2	-1,714
338,5	-3,653
338,7	-2,94
339	-2,876
339,2	-0,813
339,5	-2,476
339,8	-1,669
340	-0,809
340,3	0,616
340,5	1,457
340,8	4,614
341	5,063
341,3	3,743
341,6	2,74
341,8	3,007
342,1	1,314
342,3	1,171
342,6	4,094
342,8	5,806
343,1	4,852
343,4	5,304
343,6	3,192
343,9	4,95
344,1	6,274
344,4	6,436
344,6	6,081
344,9	5,376
345,1	5,338
345,4	4,731
345,7	4,267
345,9	6,82
346,2	6,462
346,4	5,945
346,7	5,233
346,9	5,583
347,2	2,977
347,5	4,976
347,7	4,452
348	2,438
348,2	2,461
348,5	1,974
348,7	3,23
349	2,94
349,2	4,727
349,5	4,731
349,8	4,833
350	5,274
350,3	5,757
350,5	4,565
350,8	3,128
351	3,056
351,3	4,007
351,6	3,377
351,8	2,645
352,1	2,027
352,3	2,11
352,6	2,593
352,8	1,235
353,1	1,45
353,3	1,367
353,6	0,828
353,9	0,013
354,1	-0,425
354,4	1,05
354,6	3,038
354,9	1,744
355,1	4,263
355,4	3,373
355,6	3,905
355,9	4,475
356,2	4,682
356,4	4,886
356,7	0,68
356,9	0,703
357,2	0,205
357,4	0,118
357,7	-1,277
358	1,186
358,2	0,447
358,5	0,069
358,7	-0,357
359	0,843
359,2	0,756
359,5	1,793
359,7	3,302
360	3,769
360,3	5,772
360,5	6,206
360,8	7,167
361	8,499
361,3	7,224
361,5	8,608
361,8	8,28
362	9,31
362,3	8,472
362,6	8,099
362,8	9,721
363,1	9,276
363,3	9,962
363,6	10,969
363,8	11,795
364,1	10,045
364,3	11,056
364,6	11,078
364,8	11,791
365,1	10,765
365,4	12,855
365,6	13,266
365,9	11,207
366,1	12,289
366,4	11,78
366,6	13,56
366,9	14,145
367,1	13,896
367,4	15,517
367,7	15,808
367,9	15,766
368,2	14,771
368,4	12,843
368,7	12,738
368,9	12,825
369,2	11,953
369,4	12,01
369,7	13,76
370	13,386
370,2	13,684
370,5	13,138
370,7	12,783
371	13,402
371,2	13,386
371,5	14,095
371,7	14,062
372	15,163
372,2	14,65
372,5	15,887
372,8	14,91
373	13,688
373,3	11,357
373,5	13,089
373,8	13,209
374	12,93
374,3	14,412
374,5	14,673
374,8	15,231
375	14,714
375,3	14,748
375,6	13,798
375,8	14,808
376,1	15,431
376,3	17,954
376,6	17,12
376,8	15,208
377,1	18,338
377,3	17,354
377,6	16,079
377,8	17,082
378,1	18,806
378,4	19,059
378,6	18,719
378,9	17,165
379,1	18,063
379,4	16,487
379,6	15,974
379,9	15,581
380,1	15,48
380,4	14,522
380,6	15,517
380,9	16,151
381,2	17,147
381,4	16,879
381,7	18,221
381,9	18,074
382,2	18,04
382,4	17,867
382,7	16,536
382,9	17,26
383,2	18,108
383,4	18,01
383,7	19,64
383,9	18,218
384,2	17,139
384,5	18,508
384,7	19,327
385	18,293
385,2	19,357
385,5	18,919
385,7	18,108
386	17,535
386,2	17,603
386,5	15,698
386,7	16,551
387	14,978
387,2	16,064
387,5	18,459
387,8	19,349
388	19,907
388,3	21,129
388,5	21,231
388,8	22,532
389	22,747
389,3	21,231
389,5	20,251
389,8	22,8
390	20,812
390,3	20,126
390,5	20,511
390,8	22,249
391,1	21,257
391,3	21,344
391,6	19,768
391,8	21,442
392,1	20,59
392,3	21,842
392,6	21,936
392,8	22,747
393,1	26,032
393,3	28,208
393,6	28,88
393,8	29,057
394,1	31,761
394,4	35,174
394,6	35,713
394,9	36,57
395,1	37,237
395,4	35,687
395,6	37,033
395,9	36,34
396,1	36,219
396,4	36,128
396,6	36,713
396,9	35,736
397,1	35,74
397,4	36,943
397,6	35,053
397,9	36,758
398,2	37,803
398,4	39,624
398,7	39,063
398,9	38,459
399,2	39,172
399,4	39,383
399,7	38,139
399,9	38,429
400,2	37,561
400,4	38,135
400,7	38,617
400,9	36,091
401,2	35,819
401,4	35,989
401,7	34,891
401,9	32,474
402,2	29,498
402,5	29,849
402,7	28,646
403	28,155
403,2	29,755
403,5	28,665
403,7	29,079
404	29,992
404,2	29,649
404,5	30,618
404,7	32,602
405	34,778
405,2	34,959
405,5	36,068
405,7	37,494
406	37,795
406,2	38,538
406,5	39,888
406,7	39,723
407	38,934
407,3	38,651
407,5	39,123
407,8	39,922
408	38,753
408,3	39,085
408,5	39,753
408,8	38,783
409	40,119
409,3	40,269
409,5	42,148
409,8	42,638
410	45,327
410,3	45,025
410,5	48,178
410,8	46,967
411	45,791
411,3	46,881
411,5	47,786
411,8	47,941
412	47,978
412,3	48,665
412,6	49,155
412,8	48,321
413,1	47,292
413,3	47,688
413,6	46,379
413,8	46,511
414,1	44,312
414,3	43,637
414,6	44,558
414,8	43,913
415,1	43,999
415,3	44,618
415,6	46,424
415,8	47,096
416,1	47,775
416,3	46,228
416,6	48,8
416,8	48,027
417,1	50,105
417,3	48,148
417,6	48,906
417,8	49,57
418,1	50,313
418,4	49,932
418,6	52,055
418,9	53,402
419,1	54,088
419,4	53,854
419,6	53,583
419,9	54,028
420,1	51,829
420,4	51,814
420,6	52,244
420,9	51,693
421,1	51,135
421,4	52,119
421,6	51,214
421,9	52,146
422,1	50,23
422,4	50,098
422,6	52,153
422,9	51,365
423,1	51,305
423,4	51,21
423,6	52,108
423,9	52,432
424,1	53,839
424,4	52,157
424,6	50,569
424,9	49,049
425,1	49,219
425,4	47,793
425,6	48,408
425,9	46,575
426,2	46,198
426,4	44,58
426,7	44,233
426,9	42,034
427,2	40,978
427,4	40,198
427,7	40,315
427,9	40,349
428,2	39,579
428,4	40,254
428,7	40,967
428,9	41,827
429,2	43,113
429,4	44,011
429,7	42,125
429,9	41,001
430,2	41,322
430,4	40,469
430,7	42,562
430,9	41,94
431,2	41,148
431,4	41,001
431,7	40,85
431,9	39,44
432,2	40,481
432,4	40,884
432,7	40,179
432,9	42,295
433,2	43,434
433,4	41,544
433,7	42,845
433,9	42,257
434,2	41,88
434,4	41,043
434,7	43,675
434,9	45,444
435,2	44,531
435,4	43,66
435,7	43,867
435,9	43,981
436,2	44,12
436,4	43,894
436,7	42,732
436,9	40,756
437,2	39,425
437,4	41,099
437,7	44,105
437,9	43,905
438,2	43,034
438,4	42,306
438,7	43,079
438,9	42,227
439,2	41,246
439,4	38,885
439,7	39,643
439,9	39,127
440,2	38,576
440,5	39,56
440,7	38,022
441	37,837
441,2	39,24
441,5	38,372
441,7	38,259
442	39,756
442,2	40,194
442,5	38,033
442,7	37,788
443	39,168
443,2	40,311
443,5	39,617
443,7	39,787
444	38,625
444,2	39,191
444,5	39,715
444,7	40,39
445	41,684
445,2	41,748
445,5	40,145
445,7	40,809
446	41,706
446,2	42,019
446,5	42,951
446,7	43,935
447	44,131
447,2	46,285
447,5	47,88
447,7	46,485
448	46,526
448,2	47,273
448,5	47,009
448,7	48,518
449	46,756
449,2	47,733
449,5	48,129
449,7	46,975
450	46,794
450,2	48,208
450,5	46,696
450,7	47,36
451	46,175
451,2	47,318
451,5	46,854
451,7	48,476
452	50,599
452,2	50,286
452,5	49,905
452,7	50,298
452,9	50,139
453,2	50,086
453,4	51,075
453,7	51,508
453,9	50,52
454,2	49,709
454,4	49,027
454,7	51,135
454,9	50,535
455,2	49,204
455,4	50,249
455,7	52,745
455,9	50,471
456,2	52,191
456,4	51,101
456,7	52,119
456,9	51,271
457,2	51,112
457,4	53,111
457,7	54,039
457,9	53,832
458,2	54,439
458,4	54,774
458,7	55,759
458,9	55,231
459,2	54,812
459,4	55,348
459,7	55,185
459,9	54,854
460,2	54,872
460,4	53,96
460,7	55,612
460,9	57,535
461,2	56,385
461,4	55,955
461,7	57,694
461,9	57,335
462,2	57,384
462,4	56,777
462,7	58,101
462,9	57,573
463,2	57,463
463,4	55,672
463,7	56,935
463,9	56,713
464,2	56,321
464,4	57,23
464,7	59,56
464,9	59,21
465,2	58,467
465,4	58,576
465,7	59,983
465,9	61,269
466,2	61,759
466,4	62,842
466,6	63,773
466,9	63,524
467,1	61,989
467,4	61,537
467,6	63,494
467,9	63,796
468,1	63,796
468,4	62,849
468,6	62,253
468,9	61,801
469,1	62,649
469,4	62,793
469,6	63,709
469,9	63,437
470,1	64,429
470,4	62,238
470,6	64,441
470,9	66,006
471,1	66,73
471,4	66,059
471,6	65,632
471,9	67,594
472,1	67,76
472,4	66,605
472,6	68,431
472,9	68,374
473,1	69,034
473,4	69,34
473,6	68,932
473,9	67,333
474,1	66,685
474,3	65,991
474,6	67,612
474,8	67,522
475,1	66,983
475,3	65,598
475,6	65,994
475,8	67,141
476,1	67,941
476,3	66,198
476,6	67,643
476,8	67,258
477,1	68,563
477,3	68,646
477,6	70,856
477,8	69,713
478,1	71,078
478,3	70,969
478,6	73,017
478,8	72,055
479,1	72,444
479,3	72,515
479,6	72,972
479,8	71,765
480,1	72,557
480,3	72,926
480,5	73,081
480,8	71,048
481	71,505
481,3	71,735
481,5	72,478
481,8	72,413
482	75,027
482,3	75,419
482,5	75,653
482,8	76,306
483	77,55
483,3	78,293
483,5	80,647
483,8	80,417
484	81,654
484,3	80,948
484,5	82,962
484,8	83,279
485	83,468
485,2	82,249
485,5	84,667
485,7	84,701
486	85,074
486,2	83,162
486,5	86,673
486,7	87,465
487	89,472
487,2	87,767
487,5	89,856
487,7	91,618
488	90,136
488,2	90,513
488,5	91,275
488,7	89,815
489	89,841
489,2	90,154
489,5	91,222
489,7	90,698
489,9	89,706
490,2	89,63
490,4	90,29
490,7	91,222
490,9	90,434
491,2	88,589
491,4	89,902
491,7	91,84
491,9	91,622
492,2	91,331
492,4	90,241
492,7	91,218
492,9	93,232
493,2	93,183
493,4	92,908
493,6	91,738
493,9	92,994
494,1	90,415
494,4	90,456
494,6	89,178
494,9	88,846
495,1	87,631
495,4	86,952
495,6	88,442
495,9	90,607
496,1	92,018
496,4	93,568
496,6	95,227
496,9	99,191
497,1	99,285
497,3	99,907
497,6	100,296
497,8	103,626
498,1	102,634
498,3	102,449
498,6	102,374
498,8	102,555
499,1	103,294
499,3	104,441
499,6	107,763
499,8	107,692
500,1	106,802
500,3	107,307
500,6	106,413
500,8	105,58
501	108,103
501,3	107,341
501,5	105,764
501,8	107,763
502	110,253
502,3	109,502
502,5	110,007
502,8	111,052
503	112,923
503,3	112,259
503,5	110,019
503,8	111,391
504	110,068
504,2	110,554
504,5	109,178
504,7	110,309
505	110,268
505,2	112,391
505,5	111,81
505,7	113,956
506	114,341
506,2	116,894
506,5	117,577
506,7	116,479
506,9	116,234
507,2	115,461
507,4	114,005
507,7	116,837
507,9	117,682
508,2	119,866
508,4	119,153
508,7	119,87
508,9	121,955
509,2	125,191
509,4	126,689
509,7	126,971
509,9	130,467
510,1	131,603
510,4	132,81
510,6	131,716
510,9	134,16
511,1	137,064
511,4	137,611
511,6	140,247
511,9	139,87
512,1	139,247
512,4	141,02
512,6	141,284
512,8	141,205
513,1	141,356
513,3	142,046
513,6	141,929
513,8	142,721
514,1	143,075
514,3	143,875
514,6	144,52
514,8	144,222
515,1	148,137
515,3	147,99
515,5	149,913
515,8	151,373
516	154,386
516,3	155,182
516,5	156,178
516,8	156,151
517	155,725
517,3	155,989
517,5	157,068
517,7	159,07
518	159,726
518,2	161,476
518,5	162,713
518,7	163,102
519	164,422
519,2	165,35
519,5	167,435
519,7	168,307
520	168,491
520,2	170,781
520,4	173,888
520,7	177,124
520,9	177,626
521,2	179,561
521,4	180,187
521,7	183,713
521,9	185,617
522,2	185,565
522,4	189,857
522,6	190,158
522,9	191,603
523,1	192,636
523,4	193,451
523,6	193,571
523,9	195,37
524,1	196,506
524,4	196,739
524,6	197,305
524,8	197,35
525,1	197,332
525,3	199,357
525,6	200,903
525,8	202,37
526,1	203,43
526,3	206,047
526,6	206,096
526,8	205,946
527	209,076
527,3	211,414
527,5	212,251
527,8	212,851
528	211,671
528,3	212,791
528,5	215,046
528,8	214,865
529	214,537
529,2	216,623
529,5	216,619
529,7	220,187
530	219,889
530,2	221,069
530,5	219,436
530,7	218,686
531	218,753
531,2	220,239
531,4	219,289
531,7	221,016
531,9	221,099
532,2	222,446
532,4	224,543
532,7	225,866
532,9	224,81
533,2	224,03
533,4	223,423
533,6	221,903
533,9	219,591
534,1	219,783
534,4	220,93
534,6	221,047
534,9	219,376
535,1	219,146
535,3	218,723
535,6	220,488
535,8	218,667
536,1	218,531
536,3	220,073
536,6	221,85
536,8	219,832
537,1	220,948
537,3	219,636
537,5	219,368
537,8	219,165
538	221,341
538,3	220,077
538,5	219,033
538,8	218,354
539	217,709
539,2	218,244
539,5	219,074
539,7	220,043
540	219,764
540,2	220,654
540,5	220,816
540,7	222,842
540,9	223,509
541,2	225,214
541,4	229,197
541,7	232,542
541,9	232,436
542,2	229,234
542,4	230
542,7	230,532
542,9	231,731
543,1	231,429
543,4	233,915
543,6	234,413
543,9	234,25
544,1	234,903
544,4	234,858
544,6	234,069
544,8	234,733
545,1	234,741
545,3	234,778
545,6	235,857
545,8	238,414
546,1	238,569
546,3	240,262
546,5	241,782
546,8	242,299
547	243,083
547,3	243,754
547,5	243,924
547,8	243,449
548	243,981
548,2	243,985
548,5	243,128
548,7	243,604
549	240,549
549,2	240,967
549,5	241,759
549,7	243,517
549,9	243,705
550,2	244,237
550,4	243,785
550,7	243,69
550,9	241,45
551,2	242,091
551,4	242,457
551,6	241,782
551,9	242,714
552,1	243,377
552,4	243,705
552,6	243,151
552,9	244,433
553,1	243,453
553,3	242,898
553,6	244,867
553,8	244,215
554,1	246,504
554,3	245,127
554,5	244,32
554,8	243,015
555	243,242
555,3	242,167
555,5	243,573
555,8	242,985
556	243,396
556,2	241,922
556,5	243,257
556,7	241,484
557	242,627
557,2	242,555
557,5	244,52
557,7	246,594
557,9	245,908
558,2	246,851
558,4	249,298
558,7	248,137
558,9	250,008
559,2	251,211
559,4	251,889
559,6	253,598
559,9	255,374
560,1	255,454
560,4	258,241
560,6	259,843
560,8	261,401
561,1	261,145
561,3	264,101
561,6	263,279
561,8	264,931
562,1	265,916
562,3	267,922
562,5	269,231
562,8	272,666
563	271,72
563,3	274,017
563,5	275,725
563,7	278,097
564	278,693
564,2	279,561
564,5	280,307
564,7	283,883
565	285,961
565,2	284,626
565,4	287,277
565,7	291,818
565,9	292,255
566,2	295,763
566,4	296,166
566,6	299,542
566,9	302,721
567,1	305,248
567,4	305,697
567,6	309,4
567,9	308,408
568,1	311,403
568,3	313,3
568,6	316,362
568,8	317,886
569,1	319,636
569,3	320,854
569,5	323,611
569,8	326,308
570	328,586
570,3	331,011
570,5	335,069
570,7	337,185
571	340,96
571,2	344,037
571,5	346,115
571,7	348,05
572	350,732
572,2	351,211
572,4	354,247
572,7	359,436
572,9	362,57
573,2	362,039
573,4	362,706
573,6	363,064
573,9	365,889
574,1	366,417
574,4	364,731
574,6	366,41
574,8	367,183
575,1	369,087
575,3	370,901
575,6	371,92
575,8	372,504
576	373,685
576,3	373,36
576,5	377,713
576,8	381,741
577	384,486
577,3	386,376
577,5	388,201
577,7	389,853
578	391,169
578,2	393,153
578,5	393,334
578,7	394,907
578,9	398,61
579,2	400,059
579,4	401,126
579,7	402,567
579,9	401,933
580,1	402,171
580,4	404,132
580,6	406,063
580,9	410,849
581,1	412,915
581,3	414,137
581,6	413,828
581,8	417,249
582,1	418,505
582,3	421,68
582,5	422,951
582,8	426,195
583	428,254
583,3	432,116
583,5	432,523
583,7	435,918
584	435,337
584,2	435,88
584,5	435,812
584,7	436,234
584,9	436,687
585,2	435,163
585,4	434,801
585,7	433,413
585,9	431,671
586,1	430,072
586,4	427,417
586,6	428,163
586,9	427,096
587,1	427,017
587,3	426,221
587,6	425,912
587,8	424,109
588,1	423,366
588,3	420,688
588,5	419,991
588,8	418,92
589	419,915
589,3	419,787
589,5	419,04
589,7	419,923
590	419,402
590,2	419,629
590,5	418,339
590,7	417,373
590,9	419,282
591,2	417,411
591,4	416,951
591,7	417,932
591,9	421,137
592,1	421,201
592,4	422,616
592,6	423,917
592,9	425,769
593,1	428,186
593,3	431,068
593,6	433,474
593,8	436,6
594,1	438,98
594,3	441,711
594,5	443,321
594,8	445,471
595	448,79
595,3	451,256
595,5	455,299
595,7	459,221
596	462,261
596,2	465,233
596,4	470,159
596,7	472,406
596,9	474,82
597,2	474,858
597,4	478,482
597,6	479,369
597,9	481,152
598,1	484,192
598,4	485,965
598,6	489,197
598,8	490,928
599,1	490,626
599,3	491,618
599,6	493,542
599,8	495,246
600	498,35
600,3	500,96
600,5	502,027
600,7	504,879
601	508,115
601,2	509,238
601,5	510,302
601,7	512,429
601,9	514,692
602,2	516,653
602,4	515,997
602,7	515,774
602,9	515,25
603,1	515,963
603,4	516,238
603,6	517,69
603,9	516,242
604,1	516,608
604,3	517,634
604,6	518,313
604,8	517,411
605	517,781
605,3	517,373
605,5	516,167
605,8	514,594
606	514,288
606,2	514,424
606,5	514,398
606,7	511,192
607	509,593
607,2	506,802
607,4	503,853
607,7	501,386
607,9	499,346
608,1	498,626
608,4	495,529
608,6	494,013
608,9	491,486
609,1	488,737
609,3	485,26
609,6	483,438
609,8	482,638
610,1	481,137
610,3	476,544
610,5	472,455
610,8	469,902
611	466,572
611,2	463,815
611,5	461,56
611,7	457,977
612	455,703
612,2	452,444
612,4	449,619
612,7	447,251
612,9	446,036
613,1	443,317
613,4	441,82
613,6	439,214
613,9	437,385
614,1	435,028
614,3	433,775
614,6	433,338
614,8	432,421
615	430,645
615,3	429,265
615,5	427,021
615,8	424,124
616	422,197
616,2	420,232
616,5	419,595
616,7	419,621
616,9	417,445
617,2	415,62
617,4	415,024
617,7	415,261
617,9	414,526
618,1	411,924
618,4	410,136
618,6	407,869
618,8	407,986
619,1	408,303
619,3	406,636
619,6	404,694
619,8	403,008
620	401,816
620,3	399,029
620,5	398,765
620,7	395,016
621	392,817
621,2	389,759
621,5	388,484
621,7	388,571
621,9	386,383
622,2	384,241
622,4	383,641
622,6	382,823
622,9	379,436
623,1	379,81
623,4	378,12
623,6	377,317
623,8	375,733
624,1	372,765
624,3	371,905
624,5	370,905
624,8	369,744
625	368,646
625,3	367,515
625,5	367,703
625,7	367,42
626	366,131
626,2	363,347
626,4	360,621
626,7	359,157
626,9	359,821
627,1	359,312
627,4	357,962
627,6	356,438
627,9	355,242
628,1	354,737
628,3	353,221
628,6	353,647
628,8	354,375
629	352,304
629,3	351,765
629,5	352,123
629,8	349,14
630	348,103
630,2	347,028
630,5	345,704
630,7	345,508
630,9	344,769
631,2	342,204
631,4	342,099
631,6	340,5
631,9	338,41
632,1	337,279
632,4	336,736
632,6	335,597
632,8	335,755
633,1	334,662
633,3	335,642
633,5	334,33
633,8	334,081
634	335,887
634,2	335,039
634,5	334,171
634,7	334,978
635	333,915
635,2	333,93
635,4	334,745
635,7	337,143
635,9	335,442
636,1	335,114
636,4	333,549
636,6	331,505
636,8	330,743
637,1	331,995
637,3	332,003
637,5	332,033
637,8	331,784
638	330,645
638,3	329,4
638,5	331,075
638,7	329,649
639	330,954
639,2	331,599
639,4	330,562
639,7	329,913
639,9	328,024
640,1	329,762
640,4	330,645
640,6	328,518
640,9	328,639
641,1	328,967
641,3	327,258
641,6	326,349
641,8	325,508
642	322,925
642,3	321,631
642,5	320,251
642,7	317,007
643	316,223
643,2	314,85
643,4	312,293
643,7	312,376
643,9	312,157
644,1	310,06
644,4	309,755
644,6	307,209
644,9	306,923
645,1	305,278
645,3	303,973
645,6	302,593
645,8	299,27
646	300,353
646,3	297,762
646,5	295,518
646,7	295,635
647	294,232
647,2	294,375
647,4	290,302
647,7	287,175
647,9	287,3
648,1	286,677
648,4	284,188
648,6	282,054
648,9	281,058
649,1	280,967
649,3	281,88
649,6	281,929
649,8	281,239
650	281,382
650,3	278,324
650,5	279,27
650,7	278,697
651	276,823
651,2	277,422
651,4	276,166
651,7	273,308
651,9	272,847
652,1	271,742
652,4	271,082
652,6	271,147
652,8	270,818
653,1	269,653
653,3	267,251
653,5	265,542
653,8	263,645
654	263,098
654,3	260,873
654,5	260,232
654,7	257,86
655	257,011
655,2	255,601
655,4	253,24
655,7	253,587
655,9	255,344
656,1	256,777
656,4	254,846
656,6	252,791
656,8	257,879
657,1	258,667
657,3	257,679
657,5	257,011
657,8	257,581
658	257,656
658,2	258,312
658,5	256,336
658,7	256,856
658,9	257,211
659,2	256,781
659,4	255,08
659,6	255,295
659,9	255,288
660,1	253,79
660,3	254,869
660,6	253,877
660,8	254,688
661	255,457
661,3	254,326
661,5	254,213
661,8	253,9
662	254,137
662,2	254,488
662,5	253,308
662,7	254,001
662,9	251,625
663,2	250,336
663,4	246,319
663,6	245,531
663,9	247,032
664,1	241,043
664,3	240,002
664,6	240,375
664,8	239,338
665	237,701
665,3	237,618
665,5	236,898
665,7	237,943
666	237,234
666,2	235,31
666,4	236,302
666,7	235,8
666,9	234,582
667,1	233,568
667,4	235,389
667,6	234,235
667,8	233,99
668,1	232,689
668,3	231,969
668,5	231,535
668,8	232,12
669	231,433
669,2	232,757
669,5	231,976
669,7	232,169
669,9	231,38
670,2	231,908
670,4	230,947
670,6	231,942
670,9	232,384
671,1	229,54
671,3	229,943
671,6	227,19
671,8	227,631
672	228,193
672,3	228,405
672,5	228,276
672,7	226,598
673	227,292
673,2	226,402
673,4	228,699
673,7	227,19
673,9	227,401
674,1	226,726
674,4	226,191
674,6	224,275
674,8	224,098
675,1	224,316
675,3	222,517
675,5	223,264
675,8	222,182
676	221,937
676,2	223,494
676,5	221,454
676,7	222,008
676,9	221,25
677,2	220,783
677,4	219,749
677,6	218,833
677,9	218,35
678,1	217,241
678,3	218,772
678,5	216,577
678,8	216,23
679	215,619
679,2	215,257
679,5	215,974
679,7	214,028
679,9	214,473
680,2	212,157
680,4	213,654
680,6	210,634
680,9	210,849
681,1	211,354
681,3	213,13
681,6	211,69
681,8	212,006
682	210,543
682,3	211,392
682,5	213,183
682,7	211,094
683	209,314
683,2	206,213
683,4	202,235
683,7	200,145
683,9	199,738
684,1	199,014
684,4	198,003
684,6	196,69
684,8	194,224
685,1	191,531
685,3	189,532
685,5	187,371
685,7	185,889
686	185,463
686,2	183,913
686,4	182,095
686,7	178,01
686,9	176,871
687,1	174,846
687,4	173,869
687,6	170,298
687,8	170,011
688,1	168,838
688,3	165,908
688,5	162,276
688,8	164,169
689	161,861
689,2	163,321
689,5	160,583
689,7	158,259
689,9	156,434
690,2	155,808
690,4	156,411
690,6	156,008
690,8	156,856
691,1	154,846
691,3	152,983
691,5	152,451
691,8	150,799
692	152,621
692,2	155,227
692,5	154,729
692,7	155,171
692,9	155,906
693,2	154,443
693,4	153,462
693,6	153,7
693,9	155,25
694,1	156,294
694,3	156,943
694,5	156,279
694,8	156,973
695	156,487
695,2	155,536
695,5	155,702
695,7	156,325
695,9	155,272
696,2	154,424
696,4	151,938
696,6	151,154
696,9	150,909
697,1	154,081
697,3	157,068
697,6	157,188
697,8	157,271
698	157,844
698,2	156,457
698,5	157,999
698,7	157,72
698,9	159,881
699,2	159,387
699,4	156,653
699,6	158,082
699,9	155,898
700,1	155,51
700,3	157,826
700,6	158,535
700,8	158,761
701	158,357
701,2	157,645
701,5	157,909
701,7	157,739
701,9	156,502
702,2	157,611
702,4	158,312
702,6	158,467
702,9	157,392
703,1	155,37
703,3	157,528
703,6	159,055
703,8	159,583
704	160,19
704,2	157,015
704,5	154,71
704,7	154,763
704,9	155,54
705,2	154,907
705,4	155,883
705,6	155,359
705,9	156,155
706,1	156,287
706,3	155,257
706,5	154,028
706,8	153,183
707	153,783
707,2	154,401
707,5	152,534
707,7	151,346
707,9	150,121
708,2	148,868
708,4	148,555
708,6	147,16
708,8	146,3
709,1	147,081
709,3	145,568
709,5	143,045
709,8	143,215
710	144,648
710,2	144,35
710,5	143,298
710,7	141,288
710,9	141,292
711,1	140,288
711,4	140,952
711,6	140,156
711,8	140,243
712,1	138,938
712,3	138,697
712,5	138,429
712,8	139,153
713	136,389
713,2	133,662
713,4	133,443
713,7	133,658
713,9	132,014
714,1	132,119
714,4	129,257
714,6	127,511
714,8	125,368
715,1	123,585
715,3	121,857
715,5	119,044
715,7	117,169
716	115,253
716,2	112,165
716,4	110,358
716,7	109,053
716,9	108,536
717,1	104,923
717,3	103,856
717,6	101,872
717,8	100,522
718	97,531
718,3	95,879
718,5	95,027
718,7	94,65
718,9	93,145
719,2	91,689
719,4	90,641
719,6	87,733
719,9	84,852
720,1	85,206
720,3	84,207
720,6	80,813
720,8	78,874
721	79,115
721,2	76,675
721,5	75,778
721,7	75,483
721,9	75,416
722,2	74,756
722,4	75,227
722,6	77,117
722,8	78,18
723,1	79,885
723,3	81,484
723,5	80,669
723,8	81,028
724	79,085
724,2	79,017
724,4	79,372
724,7	81,061
724,9	80,737
725,1	81,695
725,4	82,955
725,6	80,752
725,8	79,757
726	79,278
726,3	77,878
726,5	77,049
726,7	77,479
727	75,996
727,2	74,031
727,4	74,473
727,6	75,231
727,9	76,562
728,1	75,178
728,3	75,619
728,6	77,437
728,8	78,037
729	77,105
729,2	79,723
729,5	79,342
729,7	78,048
729,9	77,694
730,2	76,856
730,4	76,66
730,6	77,837
730,8	77,377
731,1	78,821
731,3	79,549
731,5	78,87
731,7	77,071
732	77,117
732,2	77,249
732,4	76,837
732,7	78,105
732,9	77,584
733,1	76,92
733,3	78,029
733,6	78,576
733,8	78,757
734	83,321
734,3	84,799
734,5	87,424
734,7	89,325
734,9	88,223
735,2	91,629
735,4	91,814
735,6	90,66
735,9	91,64
736,1	93,04
736,3	92,817
736,5	92,666
736,8	92,598
737	91,735
737,2	91,693
737,4	91,218
737,7	91,867
737,9	95,657
738,1	94,846
738,4	94,152
738,6	94,933
738,8	95,778
739	95,921
739,3	96,204
739,5	94,937
739,7	94,839
739,9	98,188
740,2	99,881
740,4	99,417
740,6	99,01
740,9	100,017
741,1	97,95
741,3	97,215
741,5	94,718
741,8	94,133
742	95,898
742,2	94,974
742,4	95,955
742,7	97,354
742,9	97,837
743,1	96,815
743,4	94,831
743,6	94,348
743,8	94,48
744	95,913
744,3	96,502
744,5	95,687
744,7	95,521
744,9	95,065
745,2	97,12
745,4	96,996
745,6	96,053
745,8	95,698
746,1	96,675
746,3	99,47
746,5	102,287
746,8	100,911
747	100,492
747,2	100,714
747,4	102,182
747,7	101,748
747,9	102,189
748,1	100,835
748,3	102,249
748,6	103,177
748,8	101,525
749	100,658
749,2	99,127
749,5	98,595
749,7	98,376
749,9	97,603
750,2	100,677
750,4	101,42
750,6	102,185
750,8	101,82
751,1	100,507
751,3	98,957
751,5	101,676
751,7	102,084
752	99,896
752,2	99,021
752,4	98,78
752,6	99,044
752,9	98,689
753,1	97,196
753,3	95,054
753,5	93,383
753,8	95,031
754	93,089
754,2	93,021
754,4	92,27
754,7	92,293
754,9	91,625
755,1	91,293
755,4	91,003
755,6	91,282
755,8	91,893
756	90,154
756,3	88,978
756,5	86,73
756,7	83,69
756,9	81,597
757,2	77,49
757,4	74,85
757,6	70,867
757,8	68,039
758,1	67,201
758,3	67,511
758,5	62,928
758,7	58,753
759	55,295
759,2	53,149
759,4	51,58
759,6	50,105
759,9	47,431
760,1	47,058
760,3	43,215
760,5	41,423
760,8	38,044
761	36,89
761,2	34,062
761,4	33,254
761,7	32,383
761,9	32,357
762,1	30,633
762,3	28,604
762,6	24,92
762,8	24,041
763	23,437
763,2	24,984
763,5	25,402
763,7	25,542
763,9	26,126
764,1	26,406
764,4	27,563
764,6	29,834
764,8	31,795
765	31,791
765,3	30,147
765,5	31,142
765,7	32,949
765,9	34,71
766,2	35,77
766,4	37,12
766,6	35,94
766,8	37,279
767,1	37,124
767,3	39,157
767,5	40,009
767,7	42,408
768	42,604
768,2	44,116
768,4	43,762
768,6	43,147
768,9	41,325
769,1	43,147
769,3	44,03
769,5	44,976
769,8	46,507
770	48,514
770,2	47,382
770,4	48,597
770,7	49,962
770,9	50,185
771,1	50,158
771,3	50,735
771,6	50,026
771,8	50,66
772	50,332
772,2	49,766
772,5	51,142
772,7	51,569
772,9	51,414
773,1	49,917
773,4	50,332
773,6	52,342
773,8	51,029
774	50,505
774,3	49,513
774,5	48,601
774,7	47,299
774,9	47,36
775,2	46,888
775,4	47,182
775,6	47,017
775,8	47,752
776	48,57
776,3	48,054
776,5	47,997
776,7	46,764
776,9	46,937
777,2	46,937
777,4	45,184
777,6	43,894
777,8	43,46
778,1	44,139
778,3	43,177
778,5	44,075
778,7	44,245
779	43,683
779,2	45,689
779,4	44,92
779,6	44,693
779,9	43,528
780,1	43,962
780,3	42,864
780,5	40,745
780,7	41,076
781	42,106
781,2	42,909
781,4	41,71
781,6	41,876
781,9	41,586
782,1	39,455
782,3	39,658
782,5	39,636
782,8	39,443
783	39,975
783,2	39,368
783,4	39,756
783,7	38,848
783,9	36,464
784,1	34,759
784,3	34,574
784,5	34,42
784,8	32,41
785	30,845
785,2	30,516
785,4	29,743
785,7	27,944
785,9	28,91
786,1	28,159
786,3	27,488
786,6	27,884
786,8	29,136
787	29,11
787,2	29,668
787,4	30,901
787,7	32,116
787,9	31,984
788,1	31,784
788,3	32,923
788,6	32,304
788,8	30,294
789	30,403
789,2	29,415
789,5	28,755
789,7	26,255
789,9	24,248
790,1	23,185
790,3	22,159
790,6	23,124
790,8	23,777
791	24,569
791,2	25,749
791,5	27,918
791,7	28,299
791,9	28,755
792,1	28,442
792,3	27,314
792,6	27,552
792,8	26,198
793	27,133
793,2	27,458
793,5	26,579
793,7	26,504
793,9	25,678
794,1	24,29
794,3	23,852
794,6	23,807
794,8	22,276
795	22,913
795,2	21,846
795,5	22,359
795,7	22,815
795,9	23,607
796,1	22,102
796,3	21,378
796,6	24,211
796,8	24,376
797	26,194
797,2	27,891
797,5	27,907
797,7	28,186
797,9	26,304
798,1	26,745
798,3	33,73
798,6	34,228
798,8	36,177
799	36,875
799,2	37,222
799,5	37,045
799,7	37,89
799,9	36,015
800,1	34,043
800,3	34,292
800,6	33,703
800,8	34,657
801	35,687
801,2	35,864
801,5	36,019
801,7	35,781
801,9	34,703
802,1	36,404
802,3	36,479
802,6	36,373
802,8	35,887
803	37,324
803,2	39,594
803,4	37,81
803,7	38,731
803,9	38,946
804,1	37,995
804,3	36,947
804,6	36,008
804,8	38,304
805	36,238
805,2	27,503
805,4	27,514
805,7	25,531
805,9	24,275
806,1	25,131
806,3	25,304
806,5	25,003
806,8	24,079
807	26,092
807,2	25,991
807,4	26,436
807,6	23,577
807,9	22,743
808,1	22,163
808,3	21,242
808,5	24,195
808,8	25,082
809	23,351
809,2	24,625
809,4	24,64
809,6	23,581
809,9	22,291
810,1	20,515
810,3	21,352
810,5	19,873
810,7	17,697
811	16,536
811,2	15,925
811,4	16,306
811,6	14,872
811,8	15,416
812,1	15,404
812,3	14,805
812,5	13,884
812,7	13,613
812,9	13,507
813,2	13,741
813,4	12,806
813,6	13,571
813,8	12,594
814	11,753
814,3	11,365
814,5	13,583
814,7	12,421
814,9	10,433
815,2	10,188
815,4	7,812
815,6	7,043
815,8	6,485
816	5,112
816,3	6,108
816,5	5,836
816,7	6,432
816,9	7,473
817,1	7,537
817,4	6,526
817,6	6,568
817,8	6,654
818	6,406
818,2	6,164
818,5	5,18
818,7	3,909
818,9	2,774
819,1	4,048
819,3	5,282
819,6	6,658
819,8	8,242
820	7,016
820,2	6,24
820,4	6,379
820,7	6,081
820,9	6,835
821,1	7,243
821,3	5,742
821,5	7,394
821,8	9,4
822	8,506
822,2	9,887
822,4	9,294
822,6	9,626
822,9	9,061
823,1	7,299
823,3	7,873
823,5	6,971
823,7	7,103
823,9	5,893
824,2	5,357
824,4	5,101
824,6	5,893
824,8	4,588
825	4,388
825,3	3,992
825,5	5,131
825,7	6,307
825,9	5,233
826,1	4,309
826,4	3,554
826,6	0,522
826,8	-0,01
827	0,307
827,2	0,371
827,5	1,107
827,7	1,265
827,9	1,71
828,1	3,053
828,3	2,528
828,6	2,378
828,8	3,151
829	1,118
829,2	1,009
829,4	2,423
829,6	2,883
829,9	2,955
830,1	3,109
830,3	3,094
830,5	2,547
830,7	3,083
831	4,165
831,2	5,048
831,4	4,199
831,6	5,61
831,8	5,685
832,1	6,413
832,3	5,757
832,5	5,681
832,7	5,074
832,9	4,995
833,1	5,127
833,4	6,719
833,6	8,676
833,8	11,059
834	10,807
834,2	11,078
834,5	9,287
834,7	6,677
834,9	5,123
835,1	4,806
835,3	4,324
835,5	3,724
835,8	4,324
836	4,637
836,2	3,449
836,4	3,716
836,6	3,181
836,9	1,846
837,1	2,163
837,3	1,891
837,5	0,586
837,7	-0,066
837,9	-0,802
838,2	0,703
838,4	-0,542
838,6	1,016
838,8	1,963
839	1,816
839,3	2,227
839,5	3,279
839,7	3,03
839,9	2,287
840,1	0,333
840,3	1,288
840,6	-1,002
840,8	0,284
841	-0,696
841,2	0,556
841,4	1,337
841,7	2,623
841,9	2,491
842,1	2,574
842,3	3,532
842,5	3,784
842,7	4,444
843	3,354
843,2	1,767
843,4	4,761
843,6	5,425
843,8	6,175
844	6,108
844,3	6,485
844,5	6,141
844,7	5,153
844,9	4,154
845,1	4,557
845,4	2,989
845,6	3,943
845,8	5,779
846	3,822
846,2	2,374
846,4	3,773
846,7	3,965
846,9	5,07
847,1	3,618
847,3	5,014
847,5	2,687
847,7	2,796
848	1,921
848,2	1,933
848,4	1,22
848,6	1,808
848,8	0,805
849	0,096
849,3	0,186
849,5	-0,364
849,7	-0,647
849,9	-1,356
850,1	-4,781
850,3	-3,227
850,6	-3,166
850,8	-3,849
851	-4,886
851,2	-4,532
851,4	-4,011
851,6	-5,576
851,9	-4,935
852,1	-4,283
852,3	-7,406
852,5	-8,537
852,7	-7,579
852,9	-5,233
853,2	-5,331
853,4	-5,18
853,6	-6,316
853,8	-7,617
854	-9,367
854,2	-6,719
854,5	-6,406
854,7	-6,572
854,9	-6,218
855,1	-5,987
855,3	-6,757
855,5	-4,709
855,8	-4,856
856	-7,262
856,2	-9,182
856,4	-6,323
856,6	-4,815
856,8	-4,019
857,1	-2,341
857,3	-3,683
857,5	-4,004
857,7	-1,122
857,9	-0,7
858,1	0,861
858,4	0,812
858,6	0,778
858,8	-0,051
859	1,401
859,2	0,247
859,4	0,79
859,7	-1,119
859,9	-1,722
860,1	-1,292
860,3	-0,27
860,5	0,409
860,7	0,409
860,9	-1,409
861,2	-0,508
861,4	0,126
861,6	1,107
861,8	1,578
862	1,963
862,2	1,601
862,5	0,978
862,7	2,955
862,9	4,173
863,1	2,736
863,3	3,577
863,5	3,539
863,8	0,228
864	1,974
864,2	3,98
864,4	2,611
864,6	2,121
864,8	0,96
865	1,921
865,3	3,113
865,5	2,743
865,7	4,542
865,9	5,534
866,1	3,664
866,3	3,86
866,6	4,395
866,8	3,249
867	2,351
867,2	2,645
867,4	2,94
867,6	2,83
867,8	1,593
868,1	1,778
868,3	0,794
868,5	0,02
868,7	-1,164
868,9	-2,084
869,1	-0,866
869,3	-0,9
869,6	-1,458
869,8	-1,103
870	-2,921
870,2	-2,567
870,4	-2,718
870,6	-4,637
870,9	-5,95
871,1	-7,296
871,3	-8,062
871,5	-8,635
871,7	-6,991
871,9	-9,216
872,1	-9,306
872,4	-11,498
872,6	-12,357
872,8	-10,973
873	-11,124
873,2	-11,829
873,4	-10,377
873,6	-9,491
873,9	-9,552
874,1	-9,631
874,3	-9,804
874,5	-10,736
874,7	-12,067
874,9	-11,946
875,1	-12,263
875,4	-12,569
875,6	-13,987
875,8	-14,089
876	-12,746
876,2	-11,607
876,4	-13,361
876,6	-13,01
876,9	-11,894
877,1	-11,105
877,3	-11,015
877,5	-13,04
877,7	-10,909
877,9	-9,027
878,1	-9,631
878,4	-11,648
878,6	-10,649
878,8	-10,498
879	-10,977
879,2	-9,48
879,4	-10,43
879,6	-9,827
879,9	-10,517
880,1	-10,525
880,3	-11,852
880,5	-11,735
880,7	-10,849
880,9	-10,834
881,1	-9,725
881,3	-8,341
881,6	-9,193
881,8	-9,774
882	-9,069
882,2	-6,146
882,4	-6,274
882,6	-7,779
882,8	-8,069
883,1	-7,119
883,3	-6,772
883,5	-7,639
883,7	-6,629
883,9	-6,116
884,1	-5,158
884,3	-7,04
884,6	-8,518
884,8	-5,931
885	-5,735
885,2	-6,927
885,4	-7,217
885,6	-5,641
885,8	-6,466
886	-4,935
886,3	-5,757
886,5	-5,644
886,7	-6,542
886,9	-5,542
887,1	-6,312
887,3	-7,489
887,5	-6,44
887,8	-5,452
888	-7,236
888,2	-6,38
888,4	-6,206
888,6	-5,837
888,8	-7,896
889	-6,504
889,2	-7,062
889,5	-9,114
889,7	-9,073
889,9	-7,126
890,1	-7,756
890,3	-9,393
890,5	-8,997
890,7	-8,36
890,9	-8,903
891,2	-8,778
891,4	-10,385
891,6	-9,838
891,8	-8,209
892	-8,503
892,2	-9,555
892,4	-11,124
892,6	-12,901
892,9	-12,572
893,1	-11,969
893,3	-10,509
893,5	-9,978
893,7	-9,567
893,9	-9,333
894,1	-9,929
894,3	-10,366
894,6	-10,004
894,8	-9,714
895	-8,533
895,2	-8,379
895,4	-7,413
895,6	-9,834
895,8	-9,631
896	-7,605
896,3	-8,281
896,5	-9,8
896,7	-9,137
896,9	-8,744
897,1	-9,265
897,3	-9,291
897,5	-7,685
897,7	-7,308
898	-5,708
898,2	-6,855
898,4	-8,443
898,6	-8,001
898,8	-7,869
899	-5,957
899,2	-3,86
899,4	-2,68
899,6	-3,355
899,9	-5,139
900,1	-3,672
900,3	-2,816
900,5	-1,794
900,7	-2,167
900,9	-3,86
901,1	-3,842
901,3	-4,562
901,6	-5,584
901,8	-5,135
902	-6,293
902,2	-6,836
902,4	-7,379
902,6	-8,771
902,8	-9,585
903	-11,098
903,2	-12,429
903,5	-12,471
903,7	-12,29
903,9	-12,422
904,1	-12,957
904,3	-12,655
904,5	-14,04
904,7	-13,232
904,9	-12,75
905,1	-12,048
905,4	-11,437
905,6	-12,176
905,8	-13,376
906	-14,062
906,2	-13,232
906,4	-12,674
906,6	-14,507
906,8	-13,998
907	-14,741
907,3	-15,186
907,5	-17,049
907,7	-16,412
907,9	-15,665
908,1	-15,148
908,3	-16,465
908,5	-15,303
908,7	-14,175
908,9	-14,703
909,2	-14,794
909,4	-12,946
909,6	-11,988
909,8	-12,474
910	-13,07
910,2	-12,972
910,4	-14,262
910,6	-13,395
910,8	-15,386
911,1	-13,304
911,3	-11,765
911,5	-11,943
911,7	-13,01
911,9	-12,21
912,1	-11,309
912,3	-12,327
912,5	-11,837
912,7	-12,308
912,9	-12,278
913,2	-11,848
913,4	-13,478
913,6	-12,32
913,8	-11,483
914	-8,213
914,2	-8,597
914,4	-8,299
914,6	-9,091
914,8	-8,677
915,1	-8,213
915,3	-7,994
915,5	-6,191
915,7	-5,588
915,9	-4,962
916,1	-5,441
916,3	-5,512
916,5	-4,539
916,7	-3,378
916,9	-1,307
917,2	-3,208
917,4	-0,772
917,6	-3,442
917,8	-4,189
918	-5,558
918,2	-5,048
918,4	-7,055
918,6	-8,394
918,8	-7,764
919	-8,748
919,2	-7,424
919,5	-6,346
919,7	-8,066
919,9	-8,262
920,1	-8,669
920,3	-9,457
920,5	-9,344
920,7	-8,956
920,9	-10,385
921,1	-9,963
921,3	-10,992
921,6	-12,539
921,8	-12,75
922	-13,474
922,2	-14,828
922,4	-15,288
922,6	-16,167
922,8	-13,674
923	-14,617
923,2	-16,087
923,4	-17,521
923,6	-16,476
923,9	-17,328
924,1	-16,947
924,3	-18,271
924,5	-16,487
924,7	-16,849
924,9	-15,51
925,1	-14,824
925,3	-14,202
925,5	-13,96
925,7	-15,967
925,9	-16,751
926,2	-14,726
926,4	-14,598
926,6	-14,043
926,8	-14,002
927	-15,518
927,2	-15,363
927,4	-15,047
927,6	-15,077
927,8	-12,901
928	-12,731
928,2	-13,278
928,5	-13,579
928,7	-12,784
928,9	-12,158
929,1	-10,245
929,3	-10,377
929,5	-9,246
929,7	-10,095
929,9	-9,646
930,1	-10,592
930,3	-10,902
930,5	-9,608
930,8	-7,598
931	-7,681
931,2	-7,866
931,4	-8,71
931,6	-7,67
931,8	-7,572
932	-7,176
932,2	-7,522
932,4	-8,91
932,6	-10,249
932,8	-11,12
933	-13,93
933,3	-14,134
933,5	-13,979
933,7	-14,481
933,9	-15,431
934,1	-15,341
934,3	-15,552
934,5	-15,167
934,7	-14,552
934,9	-14,398
935,1	-14,104
935,3	-14,82
935,5	-16,638
935,7	-17,86
936	-18,075
936,2	-17,645
936,4	-17,174
936,6	-15,752
936,8	-15,669
937	-17,208
937,2	-18,663
937,4	-18,154
937,6	-18,445
937,8	-18,011
938	-21,043
938,2	-21,669
938,4	-20,696
938,7	-19,244
938,9	-18,66
939,1	-18,878
939,3	-17,049
939,5	-15,13
939,7	-15,476
939,9	-15,857
940,1	-14,903
940,3	-14,3
940,5	-14,696
940,7	-15,684
940,9	-14,805
941,1	-15,476
941,4	-15,665
941,6	-14,583
941,8	-15,544
942	-14,221
942,2	-14,964
942,4	-15,367
942,6	-13,116
942,8	-14,04
943	-15,001
943,2	-14,575
943,4	-14,632
943,6	-13,742
943,8	-14,428
944	-14,948
944,3	-14,858
944,5	-13,968
944,7	-13,01
944,9	-13,96
945,1	-12,693
945,3	-12,011
945,5	-10,528
945,7	-10,132
945,9	-10,955
946,1	-9,74
946,3	-10,234
946,5	-11,671
946,7	-11,875
946,9	-10,502
947,1	-10,238
947,4	-11,4
947,6	-12,388
947,8	-12,961
948	-14,002
948,2	-13,033
948,4	-14,228
948,6	-13,357
948,8	-12,248
949	-13,598
949,2	-12,218
949,4	-12,248
949,6	-13,636
949,8	-12,923
950	-14,632
950,2	-12,561
950,5	-11,335
950,7	-11,98
950,9	-11,301
951,1	-12,935
951,3	-11,667
951,5	-13,006
951,7	-14,73
951,9	-15,19
952,1	-15,997
952,3	-14,767
952,5	-15,092
952,7	-12,999
952,9	-11,999
953,1	-12,727
953,3	-14,481
953,5	-15,405
953,8	-14,624
954	-12,64
954,2	-13,417
954,4	-13,149
954,6	-14,315
954,8	-13,263
955	-12,222
955,2	-12,357
955,4	-12,746
955,6	-14,27
955,8	-13,067
956	-11,969
956,2	-11,237
956,4	-9,834
956,6	-12,214
956,8	-12,663
957	-12,942
957,2	-12,357
957,5	-12,407
957,7	-13,843
957,9	-14,281
958,1	-12,795
958,3	-13,957
958,5	-15,197
958,7	-16,265
958,9	-16,438
959,1	-17,03
959,3	-17,057
959,5	-16,729
959,7	-15,971
959,9	-15,473
960,1	-16,136
960,3	-16,472
960,5	-13,719
960,7	-13,281
960,9	-12,139
961,1	-12,984
961,4	-14,956
961,6	-17,03
961,8	-17,875
962	-17,423
962,2	-15,888
962,4	-17,302
962,6	-17,2
962,8	-19,022
963	-19,108
963,2	-19,572
963,4	-19,173
963,6	-20,817
963,8	-21,466
964	-23,038
964,2	-23,921
964,4	-23,593
964,6	-22,895
964,8	-21,635
965	-22,012
965,2	-22,752
965,5	-23,084
965,7	-22,85
965,9	-22,212
966,1	-23,076
966,3	-21,424
966,5	-18,479
966,7	-20,315
966,9	-20,455
967,1	-21,349
967,3	-21,59
967,5	-20,911
967,7	-21,002
967,9	-19,655
968,1	-17,517
968,3	-15,401
968,5	-16,815
968,7	-15,08
968,9	-15,024
969,1	-13,41
969,3	-11,72
969,5	-11,347
969,7	-10,438
969,9	-8,364
970,2	-7,074
970,4	-6,202
970,6	-5,852
970,8	-6,976
971	-5,309
971,2	-5,03
971,4	-4,136
971,6	-3,608
971,8	-2,276
972	-2,763
972,2	-1,499
972,4	-1,571
972,6	-4,079
972,8	-5,893
973	-4,573
973,2	-4,215
973,4	-5,037
973,6	-5,403
973,8	-5,305
974	-4,309
974,2	-4,486
974,4	-7,398
974,6	-8,993
974,8	-8,028
975	-8,507
975,2	-9,208
975,5	-10,117
975,7	-9,246
975,9	-7,915
976,1	-8,918
976,3	-10,694
976,5	-9,57
976,7	-9,619
976,9	-8,827
977,1	-9,235
977,3	-10,487
977,5	-12,791
977,7	-12,882
977,9	-11,543
978,1	-12,082
978,3	-11,784
978,5	-12,478
978,7	-11,083
978,9	-9,438
979,1	-9,548
979,3	-8,918
979,5	-10,476
979,7	-10,547
979,9	-10,747
980,1	-11,124
980,3	-11,528
980,5	-11,222
980,7	-9,148
980,9	-7,832
981,1	-9,744
981,3	-9,657
981,5	-10,54
981,7	-11,049
981,9	-12,614
982,2	-12,327
982,4	-12,376
982,6	-9,518
982,8	-11,445
983	-11,743
983,2	-12,063
983,4	-11,169
983,6	-11,528
983,8	-8,59
984	-8,782
984,2	-9,046
984,4	-9,227
984,6	-10,234
984,8	-10,272
985	-8,854
985,2	-8,16
985,4	-9,073
985,6	-10,212
985,8	-9,785
986	-7,315
986,2	-5,588
986,4	-5,874
986,6	-4,268
986,8	-5,113
987	-3,917
987,2	-4,268
987,4	-5,399
987,6	-5,471
987,8	-5,245
988	-4,106
988,2	-4,845
988,4	-5,938
988,6	-5,708
988,8	-8,639
989	-7,372
989,2	-8,443
989,4	-7,621
989,6	-7,692
989,8	-7,066
990	-6,87
990,2	-7,598
990,4	-9,404
990,6	-8,582
990,8	-6,429
991	-6,614
991,3	-8,424
991,5	-8,963
991,7	-9,118
991,9	-9,208
992,1	-10,046
992,3	-9,966
992,5	-10,992
992,7	-10,212
992,9	-11,207
993,1	-10,019
993,3	-11,728
993,5	-13,01
993,7	-11,158
993,9	-10,747
994,1	-10,872
994,3	-10,2
994,5	-9,355
994,7	-8,405
994,9	-8,22
995,1	-8,386
995,3	-8,281
995,5	-6,734
995,7	-8,198
995,9	-7,406
996,1	-8,537
996,3	-10,8
996,5	-10,427
996,7	-10,306
996,9	-11,573
997,1	-14,541
997,3	-16,046
997,5	-16,314
997,7	-17,226
997,9	-16,887
998,1	-14,918
998,3	-14,549
998,5	-15,435
998,7	-15,831
998,9	-14,537
999,1	-14,39
999,3	-14,975
999,5	-15,405
999,7	-16,815
999,9	-18,003
1000,1	-19,565
1000,3	-18,773
1000,5	-19,587
1000,7	-19,61
1000,9	-20,24
1001,1	-20,202
1001,3	-18,414
1001,5	-19,108
1001,7	-18,871
1001,9	-18,528
1002,1	-19,097
1002,3	-18,611
1002,5	-19,127
1002,7	-19,271
1002,9	-18,475
1003,1	-18,818
1003,3	-17,932
1003,5	-15,993
1003,7	-16,001
1003,9	-14,285
1004,1	-14,205
1004,3	-14,801
1004,5	-13,866
1004,7	-13,579
1004,9	-14,609
1005,1	-15,529
1005,3	-15,337
1005,5	-16,121
1005,7	-15,548
1005,9	-14,911
1006,1	-12,818
1006,3	-11,909
1006,5	-12,81
1006,7	-12,109
1006,9	-11,679
1007,1	-11,796
1007,3	-12,112
1007,5	-12,241
1007,7	-12,727
1007,9	-14,089
1008,1	-13,481
1008,3	-13,738
1008,5	-13,327
1008,7	-10,483
1008,9	-10,102
1009,1	-9,397
1009,3	-10,253
1009,5	-9,65
1009,7	-10,279
1009,9	-9,65
1010,1	-11,799
1010,3	-9,823
1010,5	-11,139
1010,7	-11,498
1010,9	-12,75
1011,1	-11,992
1011,3	-12,124
1011,5	-13,413
1011,7	-12,931
1011,9	-13,3
1012,1	-11,573
1012,3	-12,173
1012,5	-11,973
1012,7	-11,788
1012,9	-12,595
1013,1	-14,258
1013,3	-13,998
1013,5	-13,41
1013,7	-13,406
1013,9	-13,681
1014,1	-12,467
1014,3	-12,897
1014,5	-13,395
1014,7	-13,263
1014,9	-15,299
1015,1	-14,488
1015,3	-16,004
1015,5	-16,253
1015,7	-16,706
1015,9	-16,51
1016,1	-18,015
1016,3	-15,28
1016,5	-18,426
1016,7	-17,622
1016,9	-18,848
1017,1	-19,478
1017,3	-19,783
1017,5	-19,995
1017,7	-19,504
1017,9	-19,701
1018,1	-18,584
1018,3	-19,338
1018,5	-21,164
1018,7	-20,428
1018,9	-19,859
1019,1	-20,662
1019,2	-20,828
1019,4	-21,571
1019,6	-22,525
1019,8	-23,702
1020	-22,265
1020,2	-22,808
1020,4	-20,044
1020,6	-20,289
1020,8	-21,556
1021	-20,289
1021,2	-21,322
1021,4	-20,391
1021,6	-17,562
1021,8	-16,676
1022	-17,298
1022,2	-15,688
1022,4	-15,899
1022,6	-15,703
1022,8	-15,869
1023	-15,201
1023,2	-13,485
1023,4	-13,474
1023,6	-14,375
1023,8	-11,087
1024	-10,936
1024,2	-12,987
1024,4	-12,376
1024,6	-11,332
1024,8	-13,176
1025	-12,482
1025,2	-12,444
1025,4	-9,665
1025,6	-9,563
1025,8	-9,039
1026	-8,36
1026,2	-8,552
1026,4	-8,446
1026,6	-10,653
1026,8	-8,409
1027	-7,877
1027,2	-8,62
1027,4	-9,167
1027,6	-8,959
1027,8	-11,309
1028	-12,026
1028,1	-10,196
1028,3	-11,083
1028,5	-12,701
1028,7	-12,904
1028,9	-14,1
1029,1	-14,669
1029,3	-15,122
1029,5	-14,454
1029,7	-14,537
1029,9	-16,902
1030,1	-14,213
1030,3	-13,576
1030,5	-13,319
1030,7	-12,629
1030,9	-10,053
1031,1	-11,637
1031,3	-12,184
1031,5	-13,383
1031,7	-12,825
1031,9	-12,697
1032,1	-12,523
1032,3	-14,918
1032,5	-15,658
1032,7	-17,928
1032,9	-19,553
1033,1	-19,55
1033,3	-19,195
1033,5	-19,074
1033,7	-19,98
1033,9	-19,655
1034,1	-20,421
1034,3	-20,085
1034,4	-19,783
1034,6	-19,463
1034,8	-18,267
1035	-16,985
1035,2	-16,517
1035,4	-16,268
1035,6	-16,849
1035,8	-15,759
1036	-16,272
1036,2	-19,701
1036,4	-19,595
1036,6	-21,183
1036,8	-22,767
1037	-23,529
1037,2	-23,461
1037,4	-23,314
1037,6	-23,487
1037,8	-22,925
1038	-23,487
1038,2	-24,098
1038,4	-23,415
1038,6	-21,933
1038,8	-20,078
1039	-19,376
1039,2	-19,889
1039,4	-20,327
1039,5	-19,455
1039,7	-19,369
1039,9	-18,328
1040,1	-18,083
1040,3	-18,769
1040,5	-18,343
1040,7	-19,078
1040,9	-19,361
1041,1	-20,866
1041,3	-21,447
1041,5	-22,574
1041,7	-22,126
1041,9	-22,465
1042,1	-22,605
1042,3	-21,726
1042,5	-21,308
1042,7	-20,796
1042,9	-20,069
1043,1	-21,05
1043,3	-20,668
1043,5	-19,708
1043,7	-20,129
1043,8	-21,339
1044	-20,757
1044,2	-20,342
1044,4	-18,623
1044,6	-19,584
1044,8	-20,087
1045	-21,178
1045,2	-20,346
