Data from mesure_FLMT021711__3__25.txt Node

Date: Mon Nov 04 11:50:58 CET 2024
User: jordan.swietlicki
Spectrometer: FLMT02171
Trigger mode: 0
Integration Time (sec): 1,000000E-1
Scans to average: 15
Electric dark correction enabled: true
Nonlinearity correction enabled: false
Boxcar width: 15
XAxis mode: Wavelengths
Number of Pixels in Spectrum: 3648
>>>>>Begin Spectral Data<<<<<
194,7	-39,812
194,9	-38,007
195,2	-33,532
195,5	-31,848
195,7	-27,982
196	-27,167
196,2	-25,604
196,5	-26,819
196,8	-25,536
197	-25,801
197,3	-25,956
197,6	-22,826
197,8	-22,75
198,1	-20,958
198,4	-19,129
198,6	-18,064
198,9	-13,998
199,2	-9,487
199,4	-4,879
199,7	1,141
200	0,586
200,2	-1,386
200,5	-0,938
200,7	-1,541
201	-1,103
201,3	-1,533
201,5	-0,508
201,8	-0,459
202,1	1,563
202,3	1,401
202,6	1,582
202,9	0,447
203,1	1,397
203,4	0,424
203,7	-0,187
203,9	-2,016
204,2	-1,929
204,5	-1,466
204,7	-0,244
205	0,526
205,2	2,872
205,5	3,886
205,8	2,623
206	5,87
206,3	5,979
206,6	6,896
206,8	7,661
207,1	8,397
207,4	9,408
207,6	11,87
207,9	11,968
208,2	12,115
208,4	13,454
208,7	13,42
208,9	15,483
209,2	15,536
209,5	15,804
209,7	15,861
210	15,857
210,3	15,521
210,5	17,539
210,8	17,309
211,1	17,878
211,3	17,422
211,6	15,683
211,9	15,974
212,1	16,834
212,4	17,52
212,6	17,92
212,9	18,018
213,2	16,543
213,4	15,849
213,7	16,2
214	17,132
214,2	14,122
214,5	14,375
214,8	13,273
215	12,289
215,3	14,673
215,5	16,158
215,8	14,224
216,1	14,299
216,3	16,336
216,6	15,521
216,9	16,004
217,1	16,155
217,4	15,695
217,7	15,076
217,9	13,149
218,2	12,896
218,5	11,67
218,7	9,981
219	10,513
219,2	11,591
219,5	12,319
219,8	13,617
220	14,22
220,3	14,816
220,6	14,925
220,8	13,526
221,1	13,816
221,4	13,266
221,6	13,002
221,9	14,48
222,1	13,266
222,4	12,787
222,7	13,594
222,9	11,655
223,2	10,901
223,5	8,05
223,7	8,167
224	7,793
224,2	7,179
224,5	6,798
224,8	6,752
225	6,304
225,3	6,323
225,6	6,719
225,8	8,665
226,1	10,682
226,4	9,6
226,6	8,804
226,9	9,509
227,1	9,973
227,4	9,321
227,7	8,842
227,9	8,367
228,2	8,582
228,5	7,518
228,7	7,39
229	7,575
229,3	8,14
229,5	11,961
229,8	12,07
230	11,244
230,3	10
230,6	11,437
230,8	9,77
231,1	11,158
231,4	11,093
231,6	15,359
231,9	14,054
232,1	15,525
232,4	15,152
232,7	15,114
232,9	15,28
233,2	14,284
233,5	13,334
233,7	13,828
234	12,621
234,2	9,954
234,5	11,614
234,8	15,076
235	14,616
235,3	14,718
235,6	15,284
235,8	15,597
236,1	16,815
236,4	16,317
236,6	17,678
236,9	17,859
237,1	18,372
237,4	18,452
237,7	14,212
237,9	13,439
238,2	11,538
238,5	13,213
238,7	12,097
239	12,779
239,2	12,425
239,5	13,303
239,8	10,316
240	10,019
240,3	10,792
240,6	10,181
240,8	9,181
241,1	8,846
241,3	9,69
241,6	8,88
241,9	7,348
242,1	7,952
242,4	10,011
242,7	9,449
242,9	8,476
243,2	9,057
243,4	9,238
243,7	8,442
244	6,726
244,2	6,545
244,5	6,526
244,8	7,156
245	7,722
245,3	8,812
245,5	7,948
245,8	9,649
246,1	9,702
246,3	9,868
246,6	10,358
246,9	11,919
247,1	12,364
247,4	12,621
247,6	14,02
247,9	14,533
248,2	14,635
248,4	12,33
248,7	13,047
248,9	12,972
249,2	13,451
249,5	13,047
249,7	13,881
250	12,945
250,3	12,726
250,5	11,716
250,8	12,938
251	11,135
251,3	11,241
251,6	12,474
251,8	13,337
252,1	13,266
252,4	11,165
252,6	11,859
252,9	10,049
253,1	8,374
253,4	6,983
253,7	7,586
253,9	8,563
254,2	8,661
254,4	8,419
254,7	8,099
255	8,468
255,2	8,721
255,5	8,197
255,8	7,484
256	7,118
256,3	7,386
256,5	7,643
256,8	7,25
257,1	8,088
257,3	7,631
257,6	8,382
257,8	8,929
258,1	10,581
258,4	10,69
258,6	11,719
258,9	11,723
259,2	11,109
259,4	10,528
259,7	7,605
259,9	6,183
260,2	7,586
260,5	9,328
260,7	8,008
261	7,854
261,2	7,944
261,5	7,775
261,8	7,103
262	7,586
262,3	7,431
262,6	8,008
262,8	7,016
263,1	5,67
263,3	4,067
263,6	4,441
263,9	3,426
264,1	2,996
264,4	4,324
264,6	5,127
264,9	4,335
265,2	4,429
265,4	4,384
265,7	4,723
266	2,875
266,2	4,335
266,5	4,15
266,7	2,525
267	0,315
267,3	1,382
267,5	3,007
267,8	5,436
268	5,663
268,3	5,259
268,6	3,694
268,8	5,481
269,1	3,958
269,3	3,166
269,6	2,819
269,9	3,6
270,1	1,114
270,4	2,457
270,6	2,902
270,9	2,823
271,2	2,155
271,4	0,367
271,7	-0,783
272	-0,311
272,2	0,665
272,5	-0,523
272,7	0,522
273	1,706
273,3	1,91
273,5	3,532
273,8	2,231
274	4,493
274,3	2,408
274,6	2,302
274,8	4,109
275,1	5,425
275,3	6,677
275,6	5,972
275,9	4,52
276,1	5,448
276,4	5,708
276,6	7,299
276,9	6,126
277,2	8,585
277,4	8,925
277,7	11,95
277,9	12,134
278,2	12,73
278,5	12,934
278,7	12,711
279	12,134
279,2	12,493
279,5	13,99
279,8	14,865
280	14,816
280,3	13,326
280,5	12,146
280,8	11,361
281,1	10,72
281,3	11,474
281,6	9,626
281,9	11,391
282,1	10,335
282,4	10,249
282,6	11,052
282,9	10,973
283,2	9,985
283,4	8,472
283,7	7,631
283,9	7,805
284,2	8,182
284,5	7,458
284,7	6,172
285	5,911
285,2	4,471
285,5	5,651
285,8	2,906
286	5,915
286,3	7,397
286,5	6,255
286,8	6,703
287,1	8,321
287,3	8,208
287,6	7,695
287,8	8,171
288,1	6,409
288,4	6,602
288,6	8,974
288,9	8,864
289,1	9,385
289,4	7,069
289,7	8,585
289,9	6,168
290,2	8,178
290,4	9,623
290,7	8,419
290,9	6,692
291,2	8,125
291,5	10,452
291,7	11,735
292	12,662
292,2	11,776
292,5	12,738
292,8	14,661
293	13,481
293,3	14,405
293,5	15,94
293,8	16,456
294,1	14,507
294,3	12,745
294,6	12,843
294,8	12,809
295,1	12,413
295,4	12,749
295,6	13,251
295,9	13,76
296,1	13,447
296,4	14,571
296,7	11,761
296,9	11,81
297,2	9,336
297,4	10,528
297,7	8,944
298	10,852
298,2	8,759
298,5	9,287
298,7	10,486
299	12,297
299,3	11,825
299,5	9,215
299,8	9,479
300	8,815
300,3	8,593
300,5	8,895
300,8	7,673
301,1	10,384
301,3	11,199
301,6	8,748
301,8	6,538
302,1	5,576
302,4	5,651
302,6	5,953
302,9	6,383
303,1	5,776
303,4	6,149
303,7	7,22
303,9	5,602
304,2	6,945
304,4	6,304
304,7	7,816
304,9	6,568
305,2	10,362
305,5	10
305,7	9,996
306	10,339
306,2	11,455
306,5	11,252
306,8	10,249
307	7,631
307,3	7,692
307,5	7,726
307,8	5,949
308,1	4,471
308,3	5,866
308,6	4,595
308,8	5,014
309,1	4,618
309,3	4,739
309,6	4,263
309,9	6,937
310,1	6,341
310,4	7,782
310,6	8,14
310,9	7,069
311,2	7,292
311,4	7,933
311,7	8,502
311,9	8,766
312,2	9,276
312,5	8,917
312,7	9,392
313	8,91
313,2	8,567
313,5	8,419
313,7	7,492
314	6,304
314,3	5,444
314,5	6,202
314,8	7,533
315	9,687
315,3	8,499
315,6	7,903
315,8	7,435
316,1	7,759
316,3	6,613
316,6	7,571
316,8	7,115
317,1	6,281
317,4	4,64
317,6	4,825
317,9	3,569
318,1	3,305
318,4	2,868
318,6	2,457
318,9	2,547
319,2	1,963
319,4	1,246
319,7	-0,511
319,9	-0,191
320,2	0,115
320,5	1,224
320,7	1,092
321	1,506
321,2	-0,029
321,5	1,024
321,7	2,408
322	3,268
322,3	2,755
322,5	1,876
322,8	-0,059
323	-0,756
323,3	0,782
323,5	2,132
323,8	3,532
324,1	5,044
324,3	5,806
324,6	5,135
324,8	6,141
325,1	4,976
325,4	5,119
325,6	6,138
325,9	6,511
326,1	7,793
326,4	6,828
326,6	5,806
326,9	6,971
327,2	7,084
327,4	8,046
327,7	8,736
327,9	10,286
328,2	10,362
328,4	9,106
328,7	10,943
329	11,195
329,2	11,81
329,5	10,701
329,7	11,369
330	11,248
330,2	12,64
330,5	13,673
330,8	13,715
331	15,955
331,3	15,038
331,5	14,842
331,8	13,56
332	13,417
332,3	11,652
332,6	12,085
332,8	11,105
333,1	12,742
333,3	14,084
333,6	14,329
333,8	15,193
334,1	15,065
334,4	15,412
334,6	15,378
334,9	13,786
335,1	13,941
335,4	11,889
335,6	12,836
335,9	10,645
336,2	9,351
336,4	9,853
336,7	7,096
336,9	8,45
337,2	8,348
337,4	9,638
337,7	8,238
338	6,986
338,2	6,96
338,5	4,614
338,7	5,542
339	4,022
339,2	6,025
339,5	4,595
339,8	5,93
340	5,519
340,3	6,794
340,5	6,869
340,8	9,92
341	9,781
341,3	8,02
341,6	7,816
341,8	7,737
342,1	5,549
342,3	5,444
342,6	6,922
342,8	8,084
343,1	8,042
343,4	8,902
343,6	6,967
343,9	8,676
344,1	9,132
344,4	9,057
344,6	8,891
344,9	7,846
345,1	7,744
345,4	6,903
345,7	7,28
345,9	8,567
346,2	7,737
346,4	8,227
346,7	6,564
346,9	7,02
347,2	4,844
347,5	5,81
347,7	5,512
348	5,014
348,2	6,028
348,5	6,285
348,7	7,812
349	7,895
349,2	9,634
349,5	10,079
349,8	10,09
350	11,391
350,3	12,044
350,5	11,802
350,8	11,61
351	11,689
351,3	12,538
351,6	11,489
351,8	9,962
352,1	10,098
352,3	10,535
352,6	11,52
352,8	12,3
353,1	12,266
353,3	12,146
353,6	11,689
353,9	10,992
354,1	10,633
354,4	11,912
354,6	14,277
354,9	13,662
355,1	14,631
355,4	14,431
355,6	14,363
355,9	14,525
356,2	13,76
356,4	13,594
356,7	9,732
356,9	10,06
357,2	9,46
357,4	9,807
357,7	8,763
358	11,35
358,2	10,739
358,5	10,396
358,7	8,8
359	9,558
359,2	10,049
359,5	11,278
359,7	13,583
360	13,824
360,3	14,986
360,5	14,918
360,8	13,952
361	15,408
361,3	14,507
361,5	15,02
361,8	15,578
362	16,422
362,3	15,468
362,6	15,423
362,8	16,747
363,1	17,116
363,3	18,504
363,6	19,534
363,8	21,058
364,1	19,496
364,3	19,357
364,6	19,202
364,8	19,87
365,1	20,085
365,4	21,691
365,6	22,966
365,9	21,193
366,1	22,706
366,4	22,766
366,6	25,459
366,9	25,998
367,1	24,98
367,4	27,439
367,7	27,322
367,9	27,922
368,2	27,273
368,4	26,092
368,7	27,733
368,9	28,442
369,2	27,552
369,4	28,729
369,7	29,521
370	29,03
370,2	28,702
370,5	28,042
370,7	27,288
371	27,865
371,2	27,575
371,5	28,423
371,7	28,729
372	30,366
372,2	31,029
372,5	32,41
372,8	31,557
373	30,426
373,3	27,627
373,5	28,831
373,8	28,197
374	27,231
374,3	28,567
374,5	28,642
374,8	29,755
375	30,083
375,3	29,555
375,6	28,431
375,8	28,88
376,1	29,487
376,3	32,157
376,6	30,905
376,8	29,238
377,1	32,447
377,3	31,233
377,6	29,985
377,8	31,942
378,1	34,601
378,4	34,684
378,6	35,144
378,9	33,771
379,1	34,989
379,4	33,828
379,6	32,644
379,9	31,026
380,1	30,701
380,4	30,682
380,6	31,712
380,9	32,496
381,2	33,466
381,4	32,908
381,7	34,925
381,9	35,755
382,2	36,257
382,4	36,2
382,7	34,514
382,9	35,216
383,2	36,223
383,4	37,829
383,7	39,794
383,9	39,029
384,2	38,233
384,5	40,567
384,7	41,295
385	40,714
385,2	41,755
385,5	42,759
385,7	42,54
386	42,687
386,2	43,667
386,5	42,627
386,7	44,075
387	43,075
387,2	44,905
387,5	47,05
387,8	49,566
388	51,505
388,3	53,123
388,5	54,484
388,8	56,257
389	57,799
389,3	56,702
389,5	55,057
389,8	57,113
390	55,702
390,3	55,649
390,5	56,106
390,8	58,961
391,1	58,421
391,3	58,376
391,6	58,35
391,8	60,092
392,1	60,394
392,3	61,077
392,6	62,159
392,8	63,309
393,1	67,303
393,3	69,77
393,6	70,43
393,8	70,731
394,1	73,93
394,4	77,505
394,6	80,22
394,9	82,257
395,1	83,124
395,4	82,355
395,6	84,569
395,9	84,856
396,1	85,414
396,4	86,436
396,6	88,069
396,9	89,091
397,1	92,033
397,4	95,483
397,6	95,446
397,9	98,667
398,2	101,431
398,4	105,252
398,7	106,096
398,9	107,563
399,2	109,427
399,4	110,592
399,7	111,821
399,9	113,771
400,2	114,593
400,4	116,102
400,7	119,021
400,9	118,425
401,2	119,719
401,4	121,476
401,7	122,133
401,9	122,291
402,2	120,583
402,5	120,322
402,7	119,428
403	119,775
403,2	123,015
403,5	123,566
403,7	124,659
404	125,719
404,2	125,817
404,5	127,567
404,7	129,811
405	131,58
405,2	132,217
405,5	134,205
405,7	135,778
406	136,864
406,2	137,803
406,5	138,723
406,7	139,18
407	139,27
407,3	139,738
407,5	140,594
407,8	141,028
408	141,16
408,3	142,001
408,5	142,585
408,8	142,08
409	143,177
409,3	143,524
409,5	146,104
409,8	145,9
410	149,121
410,3	150,471
410,5	154,888
410,8	155,186
411	154,944
411,3	156,611
411,5	158,146
411,8	158,75
412	159,025
412,3	160,077
412,6	160,481
412,8	160,285
413,1	159,877
413,3	160,273
413,6	159,975
413,8	159,975
414,1	159,07
414,3	158,116
414,6	159,557
414,8	158,965
415,1	159,236
415,3	159,64
415,6	162,34
415,8	162,74
416,1	163,392
416,3	161,473
416,6	164,09
416,8	162,781
417,1	165,067
417,3	163,204
417,6	164,128
417,8	164,377
418,1	165,716
418,4	164,792
418,6	166,342
418,9	167,118
419,1	166,066
419,4	165,485
419,6	164,863
419,9	166,093
420,1	164,139
420,4	164,346
420,6	164,463
420,9	163,954
421,1	163,339
421,4	164,494
421,6	163,996
421,9	164,701
422,1	165,063
422,4	165,108
422,6	166,817
422,9	165,783
423,1	165,233
423,4	164,773
423,6	165,644
423,9	166,217
424,1	168,665
424,4	166,557
424,6	166,225
424,9	164,72
425,1	164,671
425,4	162,63
425,6	163,528
425,9	161,137
426,2	161,277
426,4	159,123
426,7	158,422
426,9	157,256
427,2	155,223
427,4	155,435
427,7	154,363
427,9	153,473
428,2	152,727
428,4	153,737
428,7	154,326
428,9	155,378
429,2	155,412
429,4	156,03
429,7	155,665
429,9	153,537
430,2	152,414
430,4	153,002
430,7	155,416
430,9	155,789
431,2	154,578
431,4	154,326
431,7	154,974
431,9	153,349
432,2	155,385
432,4	156,404
432,7	156,954
432,9	159,398
433,2	162,706
433,4	161,706
433,7	163,494
433,9	164,399
434,2	165,817
434,4	165,942
434,7	167,907
434,9	170,864
435,2	170,192
435,4	170,52
435,7	172,346
435,9	172,734
436,2	173,353
436,4	173,56
436,7	173,066
436,9	171,818
437,2	171,927
437,4	173,262
437,7	177,211
437,9	179,594
438,2	179,063
438,4	178,821
438,7	179,602
438,9	180,141
439,2	179,402
439,4	177,95
439,7	178,836
439,9	178,719
440,2	179,085
440,5	180,353
440,7	180,1
441	179,753
441,2	181,126
441,5	181,024
441,7	180,145
442	181,107
442,2	182,087
442,5	180,967
442,7	182,355
443	184,237
443,2	186,13
443,5	185,538
443,7	186,085
444	184,716
444,2	186,394
444,5	187,843
444,7	189,57
445	190,106
445,2	190,007
445,5	188,427
445,7	188,125
446	188,755
446,2	189,638
446,5	191,075
446,7	192,923
447	194,801
447,2	196,698
447,5	199,372
447,7	198,735
448	198,991
448,2	199,923
448,5	199,655
448,7	200,986
449	200,356
449,2	201,224
449,5	201,952
449,7	201,469
450	201,39
450,2	203,656
450,5	203,2
450,7	204,686
451	204,411
451,2	205,897
451,5	206,24
451,7	208,559
452	210,532
452,2	210,573
452,5	210,913
452,7	212,112
452,9	213,119
453,2	214,066
453,4	216,121
453,7	217,901
453,9	217,652
454,2	217,181
454,4	216,638
454,7	218,369
454,9	218,505
455,2	217,596
455,4	218,21
455,7	220,451
455,9	218,712
456,2	220,609
456,4	221,446
456,7	222,204
456,9	221,944
457,2	222,359
457,4	224,965
457,7	227,454
457,9	228,725
458,2	228,744
458,4	229,174
458,7	229,992
458,9	229,921
459,2	230,385
459,4	231,905
459,7	232,463
459,9	232,666
460,2	233,01
460,4	231,595
460,7	233,952
460,9	236,027
461,2	235,333
461,4	235,28
461,7	236,819
461,9	237,445
462,2	237,264
462,4	237,083
462,7	237,664
462,9	236,479
463,2	236,958
463,4	235,567
463,7	237,301
463,9	237,362
464,2	236,683
464,4	237,362
464,7	238,852
464,9	238,852
465,2	239,308
465,4	239,048
465,7	240,104
465,9	241,684
466,2	242,465
466,4	242,34
466,6	243,792
466,9	243,457
467,1	241,473
467,4	241,367
467,6	243,132
467,9	243,079
468,1	244,06
468,4	242,099
468,6	240,896
468,9	240,409
469,1	240,387
469,4	241,288
469,6	242,144
469,9	243,125
470,1	244,645
470,4	244,335
470,6	247,771
470,9	250,026
471,1	252,749
471,4	251,837
471,6	252,312
471,9	254,752
472,1	254,971
472,4	255,182
472,6	257,992
472,9	257,837
473,1	258,776
473,4	259,523
473,6	260,036
473,9	259,244
474,1	260,356
474,3	260,187
474,6	262,797
474,8	264,222
475,1	265,248
475,3	264,758
475,6	266,161
475,8	268,405
476,1	270,543
476,3	271,595
476,6	274,356
476,8	275,755
477,1	277,347
477,3	278,625
477,6	280,707
477,8	281,137
478,1	283,121
478,3	284,611
478,6	286,764
478,8	286,074
479,1	287,337
479,3	287,831
479,6	288,559
479,8	289,974
480,1	291,935
480,3	292,61
480,5	294,379
480,8	294,386
481	295,563
481,3	296,51
481,5	298,542
481,8	298,546
482	301,341
482,3	301,258
482,5	300,454
482,8	298,821
483	300,311
483,3	300,59
483,5	302,397
483,8	302,099
484	301,854
484,3	301,194
484,5	303,027
484,8	303,902
485	303,849
485,2	303,245
485,5	305,836
485,7	306,334
486	305,61
486,2	305,391
486,5	308,329
486,7	310,132
487	312,912
487,2	312,237
487,5	314,439
487,7	316,427
488	316,087
488,2	316,185
488,5	317,041
488,7	316,517
489	316,321
489,2	316,932
489,5	319,138
489,7	319,598
489,9	319,255
490,2	320,36
490,4	323,426
490,7	325,056
490,9	326,41
491,2	325,542
491,4	327,654
491,7	330,373
491,9	332,24
492,2	333,047
492,4	333,255
492,7	335,887
492,9	338,844
493,2	338,278
493,4	338,169
493,6	338,855
493,9	339,73
494,1	337,713
494,4	337,962
494,6	336,434
494,9	336,396
495,1	335,552
495,4	334,462
495,6	335,382
495,9	337,422
496,1	338,422
496,4	339,636
496,6	340,967
496,9	343,977
497,1	343,547
497,3	343,822
497,6	344,758
497,8	347,594
498,1	346,24
498,3	345,342
498,6	343,453
498,8	343,909
499,1	343,977
499,3	345,41
499,6	346,074
499,8	345,259
500,1	343,34
500,3	341,903
500,6	339,602
500,8	338,72
501	340,47
501,3	338,384
501,5	336,8
501,8	338,399
502	339,576
502,3	338,252
502,5	338,161
502,8	338,312
503	340,326
503,3	339,255
503,5	336,359
503,8	337,105
504	336,295
504,2	337,328
504,5	334,673
504,7	335,891
505	335,02
505,2	336,709
505,5	337,06
505,7	338,512
506	338,422
506,2	341,428
506,5	340,798
506,7	339,346
506,9	337,06
507,2	337,219
507,4	335,276
507,7	337,513
507,9	337,928
508,2	340,168
508,4	339,448
508,7	338,286
508,9	339,304
509,2	341,145
509,4	341,081
509,7	340,922
509,9	342,944
510,1	342,997
510,4	342,518
510,6	339,832
510,9	341,575
511,1	343,792
511,4	343,445
511,6	343,724
511,9	341,854
512,1	340,734
512,4	340,79
512,6	340,771
512,8	338,35
513,1	335,729
513,3	334,235
513,6	333,01
513,8	332,21
514,1	330,868
514,3	329,193
514,6	329,317
514,8	326,417
515,1	327,254
515,3	324,848
515,5	323,728
515,8	321,846
516	322,186
516,3	322,065
516,5	321,518
516,8	319,776
517	318,463
517,3	317,973
517,5	317,931
517,7	317,732
518	317,094
518,2	316,849
518,5	315,559
518,7	314,311
519	312,421
519,2	311,633
519,5	311,158
519,7	311,222
520	310,343
520,2	310,551
520,4	313,145
520,7	316,234
520,9	317,667
521,2	318,199
521,4	317,618
521,7	321,137
521,9	322,585
522,2	321,258
522,4	324,245
522,6	324,912
522,9	326,033
523,1	326,738
523,4	328,446
523,6	327,149
523,9	328,699
524,1	329,038
524,4	328,337
524,6	327,745
524,8	325,78
525,1	324,92
525,3	326,082
525,6	328,175
525,8	329,016
526,1	328,872
526,3	330,045
526,6	330,449
526,8	330,528
527	333,021
527,3	333,447
527,5	333,643
527,8	333,36
528	331,607
528,3	331,482
528,5	331,871
528,8	331,041
529	330,969
529,2	331,588
529,5	331,132
529,7	333,779
530	333,455
530,2	333,481
530,5	331,648
530,7	331,539
531	330,038
531,2	331,897
531,4	330,517
531,7	331,973
531,9	332,176
532,2	333,492
532,4	334,707
532,7	335,71
532,9	334,703
533,2	332,855
533,4	332,78
533,6	332,172
533,9	329,759
534,1	329,77
534,4	329,551
534,6	330,438
534,9	329,182
535,1	328,318
535,3	328,114
535,6	328,906
535,8	326,606
536,1	325,885
536,3	326,847
536,6	327,303
536,8	325,897
537,1	326,515
537,3	324,822
537,5	323,181
537,8	323,355
538	324,494
538,3	323,302
538,5	322,661
538,8	320,866
539	319,221
539,2	318,097
539,5	318,244
539,7	318,271
540	318,546
540,2	319,233
540,5	319,236
540,7	319,527
540,9	319,267
541,2	319,316
541,4	322,412
541,7	324,799
541,9	325,497
542,2	321,703
542,4	323,102
542,7	322,808
542,9	323,404
543,1	322,989
543,4	325,437
543,6	325,086
543,9	325,591
544,1	324,769
544,4	323,962
544,6	322,815
544,8	322,993
545,1	323,223
545,3	322,299
545,6	323,019
545,8	324,369
546,1	324,166
546,3	324,735
546,5	325,723
546,8	326,289
547	326,327
547,3	325,399
547,5	324,347
547,8	322,627
548	321,778
548,2	322,269
548,5	321,458
548,7	321,544
549	318,335
549,2	317,392
549,5	315,457
549,7	315,371
549,9	313,545
550,2	313,21
550,4	312,21
550,7	312,319
550,9	308,616
551,2	308,982
551,4	307,394
551,6	306,919
551,9	306,444
552,1	305,9
552,4	305,323
552,6	303,151
552,9	303,638
553,1	302,016
553,3	300,707
553,6	300,326
553,8	299,01
554,1	300,473
554,3	297,965
554,5	296,234
554,8	294,115
555	293,111
555,3	291,165
555,5	290,592
555,8	287,779
556	285,821
556,2	283,042
556,5	283,532
556,7	281,307
557	281,888
557,2	281,016
557,5	281,526
557,7	281,876
557,9	280,571
558,2	278,456
558,4	279,945
558,7	277,264
558,9	277,483
559,2	277,517
559,4	276,804
559,6	277,747
559,9	277,86
560,1	277,445
560,4	277,32
560,6	276,834
560,8	276,17
561,1	274,699
561,3	276,257
561,6	273,553
561,8	274,579
562,1	272,938
562,3	272,685
562,5	272,893
562,8	273,847
563	272,576
563,3	273,523
563,5	273,937
563,7	274,571
564	273,013
564,2	272,368
564,5	271,131
564,7	273,017
565	273,53
565,2	271,746
565,4	271,667
565,7	273,534
565,9	271,637
566,2	272,323
566,4	270,713
566,6	271,724
566,9	272,474
567,1	272,949
567,4	271,245
567,6	272,866
567,9	270,698
568,1	270,675
568,3	269,981
568,6	271,082
568,8	270,03
569,1	269,144
569,3	267,537
569,5	268,974
569,8	270,92
570	270,192
570,3	270,528
570,5	270,449
570,7	269,879
571	270,373
571,2	271,188
571,5	270,543
571,7	270,211
572	270,637
572,2	268,212
572,4	268,714
572,7	269,793
572,9	270,309
573,2	267,681
573,4	265,893
573,6	265,056
573,9	265,512
574,1	262,906
574,4	260,368
574,6	259,742
574,8	258,527
575,1	256,562
575,3	257,524
575,6	256,664
575,8	256,072
576	254,164
576,3	252,451
576,5	255,284
576,8	256,43
577	257,03
577,3	256,483
577,5	256,559
577,7	255,951
578	256,264
578,2	256,061
578,5	254,529
578,7	254,514
578,9	255,506
579,2	254,488
579,4	253,044
579,7	252,791
579,9	249,921
580,1	248,65
580,4	247,926
580,6	248,752
580,9	250,864
581,1	250,554
581,3	249,894
581,6	246,696
581,8	247,541
582,1	245,874
582,3	246,745
582,5	247,039
582,8	246,564
583	246,949
583,3	248,065
583,5	247,13
583,7	247,088
584	244,166
584,2	243,211
584,5	241,552
584,7	240,326
584,9	239,466
585,2	237,697
585,4	236,996
585,7	235,069
585,9	233,877
586,1	231,429
586,4	228,721
586,6	228,284
586,9	226,911
587,1	225,38
587,3	224,75
587,6	223,751
587,8	222,061
588,1	220,424
588,3	217,562
588,5	215,872
588,8	214,477
589	215,401
589,3	213,82
589,5	212,346
589,7	213,632
590	212,402
590,2	211,908
590,5	209,808
590,7	207,02
590,9	208,005
591,2	207,398
591,4	205,75
591,7	205,972
591,9	207,028
592,1	205,667
592,4	205,41
592,6	204,893
592,9	204,731
593,1	205,508
593,3	205,142
593,6	206,417
593,8	207,224
594,1	208,159
594,3	208,808
594,5	209,4
594,8	209,057
595	210,566
595,3	210,72
595,5	212,697
595,7	215,171
596	216,872
596,2	217,467
596,4	220,266
596,7	220,816
596,9	221,352
597,2	219,048
597,4	219,923
597,6	219,014
597,9	219,757
598,1	221,326
598,4	223,377
598,6	224,471
598,8	225,146
599,1	223,917
599,3	223,762
599,6	224,38
599,8	225,116
600	227,021
600,3	228,001
600,5	227,134
600,7	229,144
601	229,536
601,2	229,996
601,5	229,151
601,7	230,072
601,9	230,015
602,2	231,011
602,4	229,513
602,7	229,611
602,9	229,125
603,1	228,695
603,4	227,654
603,6	227,907
603,9	226,643
604,1	227,032
604,3	228,261
604,6	227,36
604,8	227,318
605	227,88
605,3	227,096
605,5	226,794
605,8	224,113
606	224,233
606,2	224,678
606,5	224,377
606,7	221,575
607	221,077
607,2	218,757
607,4	216,012
607,7	214,974
607,9	213,598
608,1	213,262
608,4	211,252
608,6	210,181
608,9	209,955
609,1	208,239
609,3	207,443
609,6	206,496
609,8	207,334
610,1	206,33
610,3	202,487
610,5	200,862
610,8	200,322
611	199,387
611,2	198,075
611,5	196,777
611,7	194,737
612	194,884
612,2	192,742
612,4	191,214
612,7	189,596
612,9	190
613,1	187,812
613,4	186,051
613,6	183,585
613,9	183,053
614,1	182,167
614,3	181,352
614,6	181,635
614,8	181,608
615	179,749
615,3	180,009
615,5	178,765
615,8	177,003
616	176,6
616,2	175,442
616,5	175,536
616,7	175,925
616,9	174,465
617,2	172,508
617,4	172,915
617,7	173,858
617,9	173,013
618,1	171,35
618,4	170,313
618,6	168,85
618,8	169,728
619,1	170,049
619,3	169,536
619,6	168,457
619,8	167,68
620	167,733
620,3	166,145
620,5	167,134
620,7	165,546
621	165,402
621,2	164,294
621,5	164,199
621,7	164,69
621,9	164,124
622,2	162,336
622,4	163,513
622,6	162,913
622,9	161,084
623,1	162,785
623,4	161,122
623,6	160,281
623,8	160,485
624,1	159,044
624,3	159,255
624,5	159,504
624,8	159,229
625	158,388
625,3	159,293
625,5	159,892
625,7	159,734
626	159,398
626,2	157,086
626,4	155,525
626,7	155,216
626,9	156,656
627,1	155,864
627,4	155,121
627,6	154,292
627,9	153,428
628,1	153,575
628,3	153,504
628,6	153,051
628,8	154,454
629	153,447
629,3	152,991
629,5	154,239
629,8	151,591
630	151,708
630,2	150,694
630,5	149,947
630,7	150,188
630,9	149,619
631,2	148,152
631,4	148,273
631,6	146,734
631,9	145,244
632,1	143,573
632,4	143,973
632,6	142,596
632,8	142,242
633,1	141,838
633,3	142,615
633,5	141,533
633,8	140,707
634	141,095
634,2	140,756
634,5	140,662
634,7	141,126
635	140,345
635,2	140,111
635,4	140,737
635,7	141,612
635,9	140,371
636,1	139,014
636,4	138,738
636,6	136,227
636,8	135,514
637,1	136,668
637,3	135,902
637,5	136,166
637,8	134,997
638	134,707
638,3	134,371
638,5	135,71
638,7	134,167
639	136,355
639,2	137,724
639,4	137,29
639,7	136,943
639,9	135,766
640,1	138,305
640,4	139,568
640,6	138,01
640,9	139,161
641,1	140,319
641,3	138,569
641,6	138,18
641,8	138,667
642	137,056
642,3	135,929
642,5	135,781
642,7	133,07
643	133,636
643,2	132,346
643,4	130,599
643,7	129,796
643,9	130,475
644,1	129,709
644,4	129,649
644,6	129,936
644,9	129,702
645,1	129,683
645,3	129,804
645,6	128,857
645,8	125,814
646	126,342
646,3	124,328
646,5	122,596
646,7	123,675
647	122,838
647,2	122,238
647,4	119,168
647,7	116,966
647,9	118,022
648,1	118,071
648,4	115,759
648,6	115,646
648,9	115,212
649,1	115,642
649,3	117,399
649,6	117,539
649,8	117,403
650	117,513
650,3	113,881
650,5	115,759
650,7	115,868
651	114,669
651,2	115,823
651,4	114,069
651,7	112,138
651,9	111,052
652,1	111,309
652,4	110,999
652,6	111,882
652,8	113,368
653,1	113,598
653,3	113,451
653,5	113,379
653,8	112,791
654	112,828
654,3	111,391
654,5	111,784
654,7	110,328
655	108,51
655,2	106,847
655,4	104,403
655,7	105,678
655,9	106,658
656,1	107,341
656,4	105,123
656,6	103,094
656,8	108,608
657,1	109,77
657,3	109,872
657,5	109,864
657,8	110,588
658	110,46
658,2	111,573
658,5	109,811
658,7	111,218
658,9	110,995
659,2	110,041
659,4	108,518
659,6	108,646
659,9	107,499
660,1	105,444
660,3	104,822
660,6	102,596
660,8	101,955
661	100,601
661,3	97,92
661,5	97,422
661,8	97,09
662	96,234
662,2	97,614
662,5	97,181
662,7	98,787
662,9	97,113
663,2	96,498
663,4	92,655
663,6	92,108
663,9	93,024
664,1	87,292
664,3	86,553
664,6	86,941
664,8	86,183
665	84,965
665,3	85,187
665,5	84,429
665,7	85,516
666	84,667
666,2	83,935
666,4	84,686
666,7	84,301
666,9	83,4
667,1	82,902
667,4	83,822
667,6	83,343
667,8	84,184
668,1	83,83
668,3	84,237
668,5	86,157
668,8	86,01
669	85,12
669,2	87,348
669,5	86,787
669,7	87,48
669,9	85,863
670,2	86,198
670,4	85,723
670,6	86,787
670,9	87,959
671,1	85,81
671,3	85,798
671,6	83,486
671,8	84,358
672	85,252
672,3	85,391
672,5	86,213
672,7	84,637
673	85,5
673,2	85,516
673,4	87,533
673,7	87,488
673,9	87,824
674,1	86,783
674,4	86,496
674,6	85,742
674,8	84,965
675,1	84,399
675,3	83,486
675,5	84,565
675,8	82,909
676	84,094
676,2	85,353
676,5	83,939
676,7	85,297
676,9	84,38
677,2	84,071
677,4	83,377
677,6	83,132
677,9	83,166
678,1	81,876
678,3	83,226
678,5	82,023
678,8	81,227
679	79,519
679,2	79,455
679,5	79,485
679,7	77,505
679,9	79,3
680,2	77,264
680,4	79,089
680,6	76,705
680,9	76,822
681,1	76,988
681,3	78,836
681,6	77,245
681,8	77,501
682	77,354
682,3	78,882
682,5	79,515
682,7	77,705
683	77,052
683,2	74,503
683,4	72,621
683,7	71,21
683,9	72,059
684,1	73,036
684,4	74,152
684,6	73,779
684,8	71,78
685,1	71,248
685,3	70,977
685,5	71,207
685,7	71,644
686	72,229
686,2	71,867
686,4	71,407
686,7	69,494
686,9	69,796
687,1	67,982
687,4	67,76
687,6	64,72
687,8	64,98
688,1	63,984
688,3	63,23
688,5	60,926
688,8	63,351
689	61,974
689,2	63,852
689,5	61,469
689,7	60,028
689,9	59,149
690,2	59,213
690,4	60,183
690,6	59,206
690,8	59,481
691,1	56,317
691,3	54,631
691,5	52,436
691,8	51,727
692	53,673
692,2	55,359
692,5	54,801
692,7	54,054
692,9	53,609
693,2	52,383
693,4	52,376
693,6	51,644
693,9	52,176
694,1	52,798
694,3	53,624
694,5	53,545
694,8	54,265
695	53,99
695,2	52,689
695,5	52,315
695,7	53,613
695,9	53,024
696,2	52,851
696,4	51,116
696,6	51,829
696,9	51,501
697,1	55,193
697,3	56,321
697,6	56,615
697,8	57,43
698	58,58
698,2	58,222
698,5	58,87
698,7	60,318
698,9	61,616
699,2	60,978
699,4	58,025
699,6	58,568
699,9	57,12
700,1	57,196
700,3	59,406
700,6	60,062
700,8	60,692
701	61,095
701,2	59,953
701,5	59,583
701,7	60,122
701,9	58,866
702,2	60,115
702,4	62,091
702,6	62,857
702,9	61,171
703,1	59,662
703,3	61,68
703,6	62,849
703,8	62,891
704	63,709
704,2	59,768
704,5	59,628
704,7	60,005
704,9	59,624
705,2	58,67
705,4	59,568
705,6	59,462
705,9	59,73
706,1	59,674
706,3	59,164
706,5	58,354
706,8	58,429
707	58,912
707,2	59,285
707,5	58,014
707,7	56,611
707,9	56,196
708,2	55,087
708,4	54,906
708,6	53,952
708,8	52,651
709,1	53,089
709,3	51,984
709,5	49,698
709,8	49,445
710	51,241
710,2	51,052
710,5	49,551
710,7	47,903
710,9	48,008
711,1	47,303
711,4	48,122
711,6	46,364
711,8	46,496
712,1	47,005
712,3	47,284
712,5	47,213
712,8	47,68
713	45,406
713,2	43,675
713,4	43,358
713,7	44,501
713,9	43,419
714,1	44,641
714,4	43,32
714,6	42,148
714,8	41,367
715,1	41,19
715,3	41,242
715,5	39,836
715,7	39,319
716	38,678
716,2	38,101
716,4	37,422
716,7	37,256
716,9	37,859
717,1	35,204
717,3	35,28
717,6	35,069
717,8	35,118
718	33,462
718,3	33,107
718,5	32,685
718,7	33,341
718,9	32,391
719,2	30,347
719,4	30,245
719,6	28,238
719,9	26,379
720,1	27,446
720,3	26,779
720,6	24,999
720,8	23,837
721	23,626
721,2	22,049
721,5	22,068
721,7	21,955
721,9	21,446
722,2	19,643
722,4	19,1
722,6	20,963
722,8	21,948
723,1	23,649
723,3	24,131
723,5	24,376
723,8	25,172
724	22,924
724,2	23,158
724,4	23,554
724,7	24,965
724,9	25,127
725,1	26,1
725,4	27,62
725,6	26,115
725,8	25,093
726	24,154
726,3	23,762
726,5	22,679
726,7	23,441
727	21,348
727,2	19,707
727,4	20,892
727,6	21,107
727,9	22,34
728,1	21,914
728,3	21,62
728,6	23,015
728,8	23,807
729	23,211
729,2	25,681
729,5	25,606
729,7	24,452
729,9	24,207
730,2	22,989
730,4	23,332
730,6	22,985
730,8	21,276
731,1	22,445
731,3	23,158
731,5	22,163
731,7	19,315
732	19,1
732,2	18,24
732,4	17,343
732,7	19,809
732,9	19,342
733,1	19,338
733,3	20,3
733,6	20,703
733,8	20,503
734	25,934
734,3	27,243
734,5	29,302
734,7	30,381
734,9	28,978
735,2	31,388
735,4	31,648
735,6	30,279
735,9	30,596
736,1	32,251
736,3	31,908
736,5	31,799
736,8	31,976
737	30,543
737,2	30,075
737,4	29,37
737,7	29,781
737,9	33,251
738,1	32,183
738,4	32,27
738,6	32,779
738,8	33,85
739	32,738
739,3	33,424
739,5	31,761
739,7	30,2
739,9	32,64
740,2	33,488
740,4	32,889
740,6	32,025
740,9	32,579
741,1	30,301
741,3	28,966
741,5	26,828
741,8	27,054
742	28,469
742,2	27,567
742,4	27,763
742,7	28,446
742,9	28,725
743,1	27,096
743,4	25,512
743,6	26,179
743,8	26,266
744	27,941
744,3	28,631
744,5	27,865
744,7	27,582
744,9	27,571
745,2	30,143
745,4	29,166
745,6	28,352
745,8	28,427
746,1	29,811
746,3	31,61
746,5	35,102
746,8	34,122
747	33,945
747,2	35,038
747,4	37,686
747,7	38,229
747,9	38,64
748,1	36,883
748,3	38,931
748,6	39,515
748,8	37,95
749	37,429
749,2	36,577
749,5	35,936
749,7	35,578
749,9	34,393
750,2	37,422
750,4	38,01
750,6	37,147
750,8	36,558
751,1	36,332
751,3	36,162
751,5	38,161
751,7	39,01
752	37,139
752,2	35,465
752,4	35,223
752,6	35,053
752,9	35,14
753,1	34,212
753,3	33,394
753,5	32,074
753,8	34,009
754	32,142
754,2	31,414
754,4	29,419
754,7	29,37
754,9	28,653
755,1	29,328
755,4	28,133
755,6	28,808
755,8	29,77
756	28,646
756,3	27,424
756,5	26,881
756,7	25,255
756,9	25,825
757,2	23,064
757,4	22,532
757,6	20,809
757,8	19,093
758,1	19,591
758,3	19,892
758,5	17,512
758,7	14,582
759	11,746
759,2	12,346
759,4	11,855
759,6	12,278
759,9	10,969
760,1	11,422
760,3	9,468
760,5	8,401
760,8	7,035
761	7,741
761,2	7,412
761,4	8,321
761,7	9,132
761,9	11,316
762,1	10,931
762,3	10,961
762,6	8,691
762,8	8,182
763	7,914
763,2	10,143
763,5	10,633
763,7	10,418
763,9	10,192
764,1	10,75
764,4	10,339
764,6	11,093
764,8	13,107
765	11,508
765,3	9,849
765,5	9,917
765,7	11,146
765,9	13,368
766,2	12,825
766,4	13,635
766,6	12,142
766,8	12,708
767,1	12,598
767,3	13,145
767,5	13,126
767,7	14,344
768	13,639
768,2	14,156
768,4	13,285
768,6	11,686
768,9	8,717
769,1	9,117
769,3	10,234
769,5	11,169
769,8	11,757
770	13,156
770,2	11,444
770,4	11,98
770,7	12,545
770,9	12,594
771,1	11,946
771,3	13,073
771,6	13,213
771,8	12,934
772	12,745
772,2	12,085
772,5	13,228
772,7	13,221
772,9	13,017
773,1	10,935
773,4	11,87
773,6	13,586
773,8	12,576
774	12,413
774,3	12,459
774,5	11,678
774,7	10,298
774,9	10,845
775,2	10,626
775,4	10,769
775,6	10,177
775,8	11,184
776	12,172
776,3	10,531
776,5	9,475
776,7	9,242
776,9	10,234
777,2	10,399
777,4	9,928
777,6	9,988
777,8	10,324
778,1	11,452
778,3	10,735
778,5	11,086
778,7	11,697
779	10,946
779,2	11,893
779,4	10,637
779,6	11,207
779,9	10,177
780,1	12,285
780,3	11,335
780,5	9,849
780,7	10,177
781	11,075
781,2	11,165
781,4	10,445
781,6	11,38
781,9	10,958
782,1	9,623
782,3	9,528
782,5	9,245
782,8	8,608
783	9,068
783,2	8,729
783,4	9,234
783,7	8,574
783,9	6,458
784,1	6,036
784,3	5,316
784,5	4,131
784,8	1,061
785	0,013
785,2	-0,775
785,4	-1,051
785,7	-2,31
785,9	-1,398
786,1	-1,217
786,3	-0,651
786,6	-0,455
786,8	0,548
787	0,22
787,2	0,586
787,4	1,314
787,7	1,25
787,9	0,786
788,1	1,061
788,3	1,729
788,6	1,205
788,8	-0,602
789	-1,077
789,2	-2,141
789,5	-2,371
789,7	-3,072
789,9	-4,381
790,1	-5,018
790,3	-4,969
790,6	-4,69
790,8	-4,701
791	-4,305
791,2	-2,05
791,5	0,469
791,7	2,068
791,9	2,14
792,1	2,755
792,3	2,034
792,6	1,914
792,8	0,85
793	2,894
793,2	4,244
793,5	4,079
793,7	4,508
793,9	3,532
794,1	2,902
794,3	2,766
794,6	4,033
794,8	3,351
795	3,464
795,2	3,716
795,5	3,63
795,7	4,482
795,9	5,432
796,1	4,512
796,3	5,097
796,6	7,967
796,8	8,039
797	10,411
797,2	11,327
797,5	12,538
797,7	13,138
797,9	12,229
798,1	11,512
798,3	19,598
798,6	20,481
798,8	22,845
799	24,154
799,2	24,954
799,5	25,523
799,7	26,911
799,9	24,384
800,1	22,132
800,3	21,884
800,6	21,74
800,8	22,694
801	23,37
801,2	23,094
801,5	23,664
801,7	22,951
801,9	22,166
802,1	22,966
802,3	23,72
802,6	23,592
802,8	22,875
803	24,237
803,2	24,897
803,4	21,899
803,7	22,951
803,9	21,046
804,1	20,277
804,3	19,794
804,6	20,718
804,8	22,272
805	20,356
805,2	10,588
805,4	10
805,7	7,661
805,9	6,315
806,1	6,907
806,3	7,194
806,5	6,945
806,8	6,39
807	7,714
807,2	7,703
807,4	7,695
807,6	5,116
807,9	4,358
808,1	4,656
808,3	4,222
808,5	6,175
808,8	7,458
809	5,764
809,2	6,62
809,4	7,322
809,6	7,126
809,9	6,485
810,1	5,372
810,3	6,881
810,5	6,157
810,7	4,75
811	3,343
811,2	2,589
811,4	2,042
811,6	1,099
811,8	2,31
812,1	2,683
812,3	2,363
812,5	2,502
812,7	1,461
812,9	1,208
813,2	2,344
813,4	1,216
813,6	2,065
813,8	1,099
814	0,733
814,3	0,416
814,5	2,894
814,7	1,85
814,9	-0,304
815,2	-0,689
815,4	-1,654
815,6	-2,793
815,8	-3,023
816	-4,185
816,3	-4,064
816,5	-5,018
816,7	-4,004
816,9	-2,91
817,1	-3,321
817,4	-4,988
817,6	-3,702
817,8	-2,978
818	-3,151
818,2	-4,121
818,5	-4,528
818,7	-5,588
818,9	-6,787
819,1	-5,486
819,3	-5,512
819,6	-3,272
819,8	-1,624
820	-3,86
820,2	-3,834
820,4	-3,943
820,7	-3,419
820,9	-2,446
821,1	-1,941
821,3	-3,246
821,5	-1,522
821,8	0,296
822	-0,451
822,2	0,76
822,4	0,454
822,6	1,325
822,9	1,951
823,1	0,028
823,3	0,91
823,5	-0,768
823,7	-0,055
823,9	-0,979
824,2	-0,994
824,4	-1,454
824,6	-0,315
824,8	-0,941
825	0,164
825,3	-0,349
825,5	0,209
825,7	1,05
825,9	-0,093
826,1	-0,783
826,4	-1,812
826,6	-4,332
826,8	-4,422
827	-3,826
827,2	-4,109
827,5	-4,06
827,7	-4,585
827,9	-4,354
828,1	-2,706
828,3	-2,62
828,6	-2,337
828,8	-2,31
829	-3,845
829,2	-3,329
829,4	-2,518
829,6	-2,729
829,9	-1,367
830,1	-0,975
830,3	-0,772
830,5	-1,103
830,7	-0,715
831	0,005
831,2	0,269
831,4	-1,002
831,6	-0,945
831,8	-1,846
832,1	-0,666
832,3	-0,24
832,5	0,609
832,7	-0,726
832,9	0,118
833,1	0,005
833,4	0,428
833,6	1,936
833,8	3,83
834	4,29
834,2	5,24
834,5	4,422
834,7	1,812
834,9	0,111
835,1	-1,036
835,3	-1,401
835,5	-1,918
835,8	-1,484
836	-0,964
836,2	-1,432
836,4	-1,416
836,6	-2,273
836,9	-2,982
837,1	-2,401
837,3	-3,208
837,5	-4,313
837,7	-5,162
837,9	-5,263
838,2	-3,83
838,4	-3,717
838,6	-2,08
838,8	-2,118
839	-2,774
839,3	-2,959
839,5	-0,983
839,7	-1,349
839,9	-1,926
840,1	-1,997
840,3	-0,406
840,6	-3,231
840,8	-2,691
841	-3,706
841,2	-2,638
841,4	-1,141
841,7	0,096
841,9	0,662
842,1	0,718
842,3	1,74
842,5	1,586
842,7	1,627
843	0,379
843,2	-1,036
843,4	1,276
843,6	0,703
843,8	1,57
844	2,298
844,3	2,321
844,5	2,981
844,7	2,37
844,9	1,876
845,1	1,125
845,4	0,122
845,6	-0,112
845,8	1,461
846	0,262
846,2	-1,217
846,4	-0,662
846,7	0,232
846,9	0,767
847,1	-0,994
847,3	0,729
847,5	0,398
847,7	0,149
848	-1,126
848,2	-1,941
848,4	-2,209
848,6	-2,687
848,8	-3,57
849	-3,593
849,3	-4,124
849,5	-4,686
849,7	-5,045
849,9	-5,407
850,1	-8,462
850,3	-6,225
850,6	-6,753
850,8	-8,307
851	-9,423
851,2	-9,68
851,4	-9,955
851,6	-11,29
851,9	-10,747
852,1	-9,827
852,3	-11,652
852,5	-12,84
852,7	-11,667
852,9	-10,053
853,2	-9,453
853,4	-10,393
853,6	-11,245
853,8	-12,516
854	-14,522
854,2	-13,508
854,5	-13,338
854,7	-13,621
854,9	-13,368
855,1	-13,421
855,3	-12,999
855,5	-11,317
855,8	-11,72
856	-13,168
856,2	-13,979
856,4	-11,55
856,6	-10,638
856,8	-8,937
857,1	-7,074
857,3	-7,892
857,5	-6,923
857,7	-3,596
857,9	-2,676
858,1	-0,549
858,4	-1,469
858,6	-1,522
858,8	-2,967
859	-1,613
859,2	-3,151
859,4	-2,989
859,7	-3,366
859,9	-4,713
860,1	-5,018
860,3	-4,185
860,5	-4,121
860,7	-4,249
860,9	-6,463
861,2	-5,32
861,4	-4,181
861,6	-3,117
861,8	-2,363
862	-2,027
862,2	-2,767
862,5	-3,453
862,7	-2,024
862,9	-1,937
863,1	-2,186
863,3	-1,575
863,5	-1,277
863,8	-4,253
864	-2,473
864,2	-1,824
864,4	-3,909
864,6	-5,633
864,8	-6,516
865	-5,041
865,3	-3,487
865,5	-3,808
865,7	-2,654
865,9	-0,602
866,1	-1,816
866,3	-2,537
866,6	-1,341
866,8	-0,53
867	-1,956
867,2	-1,435
867,4	0,3
867,6	1,457
867,8	-0,345
868,1	-0,636
868,3	-1,126
868,5	-2,45
868,7	-4,2
868,9	-4,392
869,1	-3,072
869,3	-2,827
869,6	-3,068
869,8	-3,234
870	-4,92
870,2	-5,942
870,4	-6,421
870,6	-7,093
870,9	-8,431
871,1	-8,33
871,3	-7,971
871,5	-8,465
871,7	-7,707
871,9	-10,117
872,1	-10,543
872,4	-12,795
872,6	-13,934
872,8	-13,319
873	-13,036
873,2	-13,651
873,4	-12,667
873,6	-12,203
873,9	-12,787
874,1	-14,058
874,3	-15,179
874,5	-15,42
874,7	-16,287
874,9	-16,442
875,1	-16,054
875,4	-15,409
875,6	-16,615
875,8	-16,706
876	-14,816
876,2	-13,791
876,4	-15,827
876,6	-14,469
876,9	-13,172
877,1	-12,614
877,3	-13,523
877,5	-14,39
877,7	-13,063
877,9	-11,407
878,1	-13,097
878,4	-13,949
878,6	-12,516
878,8	-11,558
879	-11,701
879,2	-10,249
879,4	-10,728
879,6	-9,634
879,9	-10,604
880,1	-10,532
880,3	-10,294
880,5	-9,031
880,7	-7,236
880,9	-6,791
881,1	-5,35
881,3	-4,645
881,6	-5,158
881,8	-7,013
882	-6,904
882,2	-4,407
882,4	-4,92
882,6	-6,474
882,8	-6,685
883,1	-6,202
883,3	-6,84
883,5	-7,541
883,7	-6,417
883,9	-6,399
884,1	-5,905
884,3	-8,107
884,6	-10,023
884,8	-6,757
885	-6,127
885,2	-6,746
885,4	-6,923
885,6	-5,358
885,8	-5,882
886	-4,664
886,3	-6,202
886,5	-5,705
886,7	-7,13
886,9	-5,84
887,1	-6,316
887,3	-8,228
887,5	-7,451
887,8	-6,5
888	-8,118
888,2	-7,44
888,4	-6,964
888,6	-6,58
888,8	-7,881
889	-6,764
889,2	-7,877
889,5	-9,585
889,7	-8,254
889,9	-6,316
890,1	-7,074
890,3	-8,243
890,5	-7,349
890,7	-6,037
890,9	-5,573
891,2	-4,709
891,4	-6,282
891,6	-6,274
891,8	-5,716
892	-7,047
892,2	-7,296
892,4	-9,152
892,6	-9,906
892,9	-9,929
893,1	-10,223
893,3	-8,71
893,5	-10,17
893,7	-11,143
893,9	-10,189
894,1	-10,664
894,3	-11,882
894,6	-10,83
894,8	-10,174
895	-8,722
895,2	-8,703
895,4	-8,571
895,6	-10,966
895,8	-10,755
896	-7,945
896,3	-9,404
896,5	-10,932
896,7	-9,416
896,9	-8,744
897,1	-8,956
897,3	-9,736
897,5	-9,352
897,7	-9,284
898	-7,802
898,2	-9,638
898,4	-10,528
898,6	-9,367
898,8	-10,08
899	-9,012
899,2	-7,722
899,4	-5,995
899,6	-5,58
899,9	-6,531
900,1	-5,124
900,3	-3,781
900,5	-3,476
900,7	-3,453
900,9	-5,52
901,1	-4,656
901,3	-5,754
901,6	-6,052
901,8	-5,799
902	-7,236
902,2	-6,444
902,4	-7,206
902,6	-8,503
902,8	-8,424
903	-9,472
903,2	-11,226
903,5	-11,86
903,7	-12,618
903,9	-12,497
904,1	-11,754
904,3	-11,154
904,5	-12,346
904,7	-9,959
904,9	-9,529
905,1	-8,907
905,4	-7,538
905,6	-7,568
905,8	-9,039
906	-10,151
906,2	-9,778
906,4	-9,552
906,6	-10,826
906,8	-9,601
907	-10,411
907,3	-10,31
907,5	-9,883
907,7	-10,773
907,9	-9,073
908,1	-9,348
908,3	-10,43
908,5	-8,714
908,7	-9,012
908,9	-8,718
909,2	-10,151
909,4	-9,08
909,6	-7,756
909,8	-8,59
910	-9,502
910,2	-8,167
910,4	-8,42
910,6	-7,99
910,8	-9,337
911,1	-7,338
911,3	-6,519
911,5	-6,414
911,7	-6,365
911,9	-6,014
912,1	-4,807
912,3	-5,241
912,5	-4,057
912,7	-3,921
912,9	-4,249
913,2	-3,615
913,4	-5,478
913,6	-4,034
913,8	-3,63
914	-1,99
914,2	-2,144
914,4	-3,008
914,6	-3,31
914,8	-2,838
915,1	-2,167
915,3	-1,179
915,5	-0,074
915,7	1,152
915,9	0,635
916,1	-0,115
916,3	-0,255
916,5	-0,074
916,7	-0,044
916,9	1,148
917,2	0,601
917,4	2,132
917,6	-0,432
917,8	-1,775
918	-3,412
918,2	-4,083
918,4	-6,923
918,6	-8,103
918,8	-8,088
919	-9,567
919,2	-8,658
919,5	-7,647
919,7	-8,865
919,9	-8,85
920,1	-9,702
920,3	-11,222
920,5	-11,068
920,7	-10,442
920,9	-10,97
921,1	-10,687
921,3	-11,234
921,6	-12,384
921,8	-13,104
922	-13,957
922,2	-16,204
922,4	-15,695
922,6	-16,714
922,8	-14,436
923	-14,349
923,2	-15,446
923,4	-17,453
923,6	-17,555
923,9	-18,678
924,1	-18,731
924,3	-19,497
924,5	-17,343
924,7	-17,66
924,9	-16,219
925,1	-15,914
925,3	-15,409
925,5	-14,341
925,7	-16,084
925,9	-16,502
926,2	-15,163
926,4	-15,382
926,6	-14,722
926,8	-14,477
927	-15,171
927,2	-14,681
927,4	-15,367
927,6	-15,465
927,8	-14,066
928	-14,609
928,2	-14,413
928,5	-14,681
928,7	-12,463
928,9	-12,056
929,1	-10,815
929,3	-10,581
929,5	-9,469
929,7	-10,381
929,9	-9,423
930,1	-10,649
930,3	-11,241
930,5	-8,68
930,8	-6,531
931	-6,795
931,2	-6,885
931,4	-7,036
931,6	-6,334
931,8	-5,282
932	-6,138
932,2	-7,315
932,4	-8,314
932,6	-9,695
932,8	-10,374
933	-12,456
933,3	-12,516
933,5	-13,127
933,7	-13,655
933,9	-13,127
934,1	-13,085
934,3	-12,908
934,5	-12,606
934,7	-12,629
934,9	-11,215
935,1	-11,332
935,3	-11,818
935,5	-13,029
935,7	-14,134
936	-15,205
936,2	-14,662
936,4	-14,801
936,6	-12,859
936,8	-12,459
937	-14,292
937,2	-16,966
937,4	-16,951
937,6	-16,91
937,8	-15,16
938	-18,328
938,2	-19,361
938,4	-18,018
938,7	-16,348
938,9	-16,812
939,1	-16,623
939,3	-14,839
939,5	-13,18
939,7	-13,161
939,9	-12,637
940,1	-12,388
940,3	-12,222
940,5	-12,301
940,7	-13,014
940,9	-12,561
941,1	-12,874
941,4	-14,488
941,6	-14,07
941,8	-15,254
942	-13,783
942,2	-14,307
942,4	-13,172
942,6	-10,208
942,8	-10,272
943	-10,951
943,2	-10,049
943,4	-10,038
943,6	-9,608
943,8	-10,513
944	-11,098
944,3	-12,429
944,5	-11,102
944,7	-9,518
944,9	-10,087
945,1	-8,639
945,3	-7,187
945,5	-6,146
945,7	-6,116
945,9	-7,417
946,1	-6,116
946,3	-7,839
946,5	-8,684
946,7	-8,631
946,9	-7,466
947,1	-7,986
947,4	-8,152
947,6	-8,835
947,8	-7,941
948	-9,412
948,2	-8,348
948,4	-9,174
948,6	-8,239
948,8	-9,027
949	-11,034
949,2	-10,464
949,4	-10,849
949,6	-12,056
949,8	-11,773
950	-11,347
950,2	-9,016
950,5	-8,088
950,7	-8,914
950,9	-7,809
951,1	-10,377
951,3	-9,552
951,5	-11,007
951,7	-13,662
951,9	-14,462
952,1	-15,186
952,3	-14,36
952,5	-15,371
952,7	-13,074
952,9	-12,357
953,1	-13,527
953,3	-15,19
953,5	-15,465
953,8	-15,167
954	-13,549
954,2	-15,028
954,4	-14,341
954,6	-15,409
954,8	-15,673
955	-15,405
955,2	-14,107
955,4	-15,047
955,6	-15,925
955,8	-15,111
956	-14,202
956,2	-14,326
956,4	-13,628
956,6	-15,854
956,8	-15,925
957	-15,676
957,2	-15,303
957,5	-14,93
957,7	-16,197
957,9	-16,204
958,1	-14,926
958,3	-15,669
958,5	-16,287
958,7	-16,291
958,9	-15,857
959,1	-16,695
959,3	-16,37
959,5	-16,095
959,7	-15,065
959,9	-14,715
960,1	-15,567
960,3	-15,839
960,5	-14,021
960,7	-13,168
960,9	-11,339
961,1	-11,019
961,4	-11,886
961,6	-14,387
961,8	-14,669
962	-14,307
962,2	-13,342
962,4	-15,329
962,6	-14,937
962,8	-16,502
963	-16,578
963,2	-17,687
963,4	-17,362
963,6	-19,497
963,8	-20,436
964	-21,545
964,2	-22,28
964,4	-20,956
964,6	-20,146
964,8	-19,191
965	-19,595
965,2	-21,186
965,5	-20,806
965,7	-20,379
965,9	-19,821
966,1	-20,938
966,3	-19,768
966,5	-17,242
966,7	-18,656
966,9	-18,46
967,1	-20,006
967,3	-20,96
967,5	-19,682
967,7	-19,802
967,9	-17,92
968,1	-15,725
968,3	-14,258
968,5	-15,058
968,7	-12,904
968,9	-12,21
969,1	-11,452
969,3	-9,981
969,5	-9,484
969,7	-8,643
969,9	-6,35
970,2	-5,339
970,4	-4,947
970,6	-5,041
970,8	-5,942
971	-4,471
971,2	-4,241
971,4	-3,479
971,6	-1,601
971,8	-0,591
972	-1,816
972,2	-0,413
972,4	-0,73
972,6	-2,099
972,8	-3,446
973	-2,31
973,2	-2,178
973,4	-2,303
973,6	-2,963
973,8	-4,287
974	-3,653
974,2	-4,882
974,4	-6,572
974,6	-8,42
974,8	-8,235
975	-8,956
975,2	-10,287
975,5	-11,381
975,7	-10,815
975,9	-9,831
976,1	-10,306
976,3	-11,856
976,5	-10,494
976,7	-10,638
976,9	-9,914
977,1	-10,728
977,3	-11,275
977,5	-12,637
977,7	-13,338
977,9	-12,448
978,1	-13,459
978,3	-12,342
978,5	-13,877
978,7	-12,916
978,9	-12,248
979,1	-11,351
979,3	-10,419
979,5	-10,845
979,7	-10,464
979,9	-9,865
980,1	-10,54
980,3	-11,573
980,5	-10,683
980,7	-9,865
980,9	-7,76
981,1	-8,997
981,3	-8,737
981,5	-8,13
981,7	-7,749
981,9	-8,937
982,2	-8,333
982,4	-8,767
982,6	-5,897
982,8	-7,843
983	-8,224
983,2	-7,949
983,4	-7,017
983,6	-7,745
983,8	-6,176
984	-6,138
984,2	-6,67
984,4	-6,866
984,6	-8,722
984,8	-7,783
985	-5,878
985,2	-5,275
985,4	-7,138
985,6	-9,748
985,8	-9,438
986	-8,25
986,2	-6,776
986,4	-6,783
986,6	-4,192
986,8	-5,603
987	-5,316
987,2	-6,138
987,4	-6,365
987,6	-5,55
987,8	-6,052
988	-5,539
988,2	-6,719
988,4	-7,968
988,6	-8,149
988,8	-11,128
989	-9,408
989,2	-9,205
989,4	-8,522
989,6	-8,786
989,8	-8,48
990	-8,017
990,2	-8,054
990,4	-9,046
990,6	-7,805
990,8	-5,671
991	-5,776
991,3	-7,56
991,5	-8,096
991,7	-8,115
991,9	-7,353
992,1	-7,941
992,3	-7,839
992,5	-9,001
992,7	-8,356
992,9	-9,344
993,1	-8,567
993,3	-9,288
993,5	-10,294
993,7	-9,095
993,9	-9,039
994,1	-9,001
994,3	-9,035
994,5	-7,473
994,7	-7,119
994,9	-6,146
995,1	-5,957
995,3	-5,95
995,5	-5,463
995,7	-6,7
995,9	-5,343
996,1	-5,128
996,3	-7,794
996,5	-8,156
996,7	-8,088
996,9	-8,842
997,1	-11,343
997,3	-12,508
997,5	-12,795
997,7	-12,735
997,9	-12,097
998,1	-9,593
998,3	-9,435
998,5	-9,257
998,7	-9,223
998,9	-8,02
999,1	-7,892
999,3	-7,572
999,5	-8,13
999,7	-9,276
999,9	-10,019
1000,1	-12,033
1000,3	-11,829
1000,5	-11,905
1000,7	-12,701
1000,9	-12,987
1001,1	-12,908
1001,3	-12,195
1001,5	-13,496
1001,7	-14,194
1001,9	-14,232
1002,1	-14,915
1002,3	-15,646
1002,5	-15,722
1002,7	-15,691
1002,9	-15,895
1003,1	-16,555
1003,3	-15,752
1003,5	-14,27
1003,7	-14,187
1003,9	-13,376
1004,1	-13,21
1004,3	-14,613
1004,5	-14,032
1004,7	-14,07
1004,9	-15,009
1005,1	-15,375
1005,3	-15,782
1005,5	-16,336
1005,7	-14,549
1005,9	-14,258
1006,1	-13,157
1006,3	-12,105
1006,5	-12,972
1006,7	-11,928
1006,9	-10,366
1007,1	-10,868
1007,3	-11,645
1007,5	-10,691
1007,7	-11,087
1007,9	-11,264
1008,1	-11,275
1008,3	-11,961
1008,5	-11,188
1008,7	-8,164
1008,9	-7,866
1009,1	-7,066
1009,3	-8,299
1009,5	-7,654
1009,7	-8,59
1009,9	-8,529
1010,1	-10,328
1010,3	-9,427
1010,5	-10,08
1010,7	-11,524
1010,9	-12,72
1011,1	-11,826
1011,3	-11,799
1011,5	-12,55
1011,7	-12,931
1011,9	-14,104
1012,1	-11,69
1012,3	-11,664
1012,5	-11,747
1012,7	-11,139
1012,9	-11,765
1013,1	-14,545
1013,3	-13,727
1013,5	-12,501
1013,7	-13,357
1013,9	-13,033
1014,1	-12,308
1014,3	-12,674
1014,5	-13,474
1014,7	-13,945
1014,9	-16,657
1015,1	-15,971
1015,3	-17,675
1015,5	-16,619
1015,7	-17,479
1015,9	-17,125
1016,1	-17,638
1016,3	-15,465
1016,5	-17,89
1016,7	-16,631
1016,9	-16,619
1017,1	-17,506
1017,3	-18,611
1017,5	-18,901
1017,7	-18,554
1017,9	-18,181
1018,1	-18,045
1018,3	-19,512
1018,5	-21,281
1018,7	-20,609
1018,9	-20,504
1019,1	-21,941
1019,2	-22,461
1019,4	-22,62
1019,6	-22,978
1019,8	-24,302
1020	-23,925
1020,2	-23,842
1020,4	-21,42
1020,6	-20,787
1020,8	-22,133
1021	-19,908
1021,2	-21,036
1021,4	-19,218
1021,6	-17,766
1021,8	-17,072
1022	-17,679
1022,2	-16,631
1022,4	-16,657
1022,6	-16,879
1022,8	-17,211
1023	-17,06
1023,2	-16,167
1023,4	-16,061
1023,6	-16,574
1023,8	-14,092
1024	-14,56
1024,2	-15,937
1024,4	-15,039
1024,6	-14,718
1024,8	-15,318
1025	-14,541
1025,2	-14,024
1025,4	-10,917
1025,6	-10,898
1025,8	-11,814
1026	-10,641
1026,2	-10,132
1026,4	-10,513
1026,6	-11,173
1026,8	-8,65
1027	-7,247
1027,2	-7,632
1027,4	-7,153
1027,6	-7,417
1027,8	-9,665
1028	-10,321
1028,1	-8,892
1028,3	-10,249
1028,5	-11,188
1028,7	-11,543
1028,9	-13,04
1029,1	-13,138
1029,3	-13,274
1029,5	-13,206
1029,7	-13,662
1029,9	-15,658
1030,1	-12,919
1030,3	-12,373
1030,5	-11,467
1030,7	-10,193
1030,9	-9,024
1031,1	-10,321
1031,3	-10,619
1031,5	-11,083
1031,7	-10,095
1031,9	-10,298
1032,1	-10,034
1032,3	-11,66
1032,5	-12,176
1032,7	-14,877
1032,9	-17,649
1033,1	-17,834
1033,3	-17,664
1033,5	-18,324
1033,7	-19,893
1033,9	-18,841
1034,1	-18,814
1034,3	-17,83
1034,4	-17,732
1034,6	-18,569
1034,8	-15,691
1035	-14,651
1035,2	-15,062
1035,4	-13,983
1035,6	-14,1
1035,8	-13,485
1036	-13,877
1036,2	-15,933
1036,4	-16,186
1036,6	-18,083
1036,8	-19,882
1037	-20,907
1037,2	-21,481
1037,4	-21,647
1037,6	-22,518
1037,8	-22,473
1038	-22,725
1038,2	-22,989
1038,4	-22,552
1038,6	-21,515
1038,8	-18,893
1039	-17,509
1039,2	-18,573
1039,4	-19,35
1039,5	-18,222
1039,7	-16,913
1039,9	-16,087
1040,1	-15,552
1040,3	-16,54
1040,5	-15,575
1040,7	-15,409
1040,9	-16,227
1041,1	-18,279
1041,3	-18,003
1041,5	-19,591
1041,7	-18,516
1041,9	-18,648
1042,1	-19,093
1042,3	-19,154
1042,5	-18,439
1042,7	-18,192
1042,9	-17,338
1043,1	-17,482
1043,3	-16,553
1043,5	-15,489
1043,7	-15,194
1043,8	-16,525
1044	-15,522
1044,2	-15,559
1044,4	-14,478
1044,6	-14,79
1044,8	-16,904
1045	-18,173
1045,2	-16,502
