Data from mesure_FLMT021711__9__31.txt Node

Date: Mon Nov 04 11:51:44 CET 2024
User: jordan.swietlicki
Spectrometer: FLMT02171
Trigger mode: 0
Integration Time (sec): 1,000000E-1
Scans to average: 15
Electric dark correction enabled: true
Nonlinearity correction enabled: false
Boxcar width: 15
XAxis mode: Wavelengths
Number of Pixels in Spectrum: 3648
>>>>>Begin Spectral Data<<<<<
194,7	-38,843
194,9	-37,664
195,2	-33,194
195,5	-32,16
195,7	-27,781
196	-26,458
196,2	-25,233
196,5	-27,699
196,8	-26,394
197	-25,398
197,3	-24,889
197,6	-21,758
197,8	-21,594
198,1	-19,886
198,4	-18,093
198,6	-17,407
198,9	-13,534
199,2	-9,494
199,4	-4,663
199,7	1,134
200	0,534
200,2	-1,329
200,5	-1,767
200,7	-2,898
201	-2,385
201,3	-2,076
201,5	-1,665
201,8	-2,551
202,1	-0,986
202,3	-0,756
202,6	-0,443
202,9	-1,084
203,1	0,149
203,4	-0,839
203,7	-0,76
203,9	-2,593
204,2	-2,732
204,5	-1,823
204,7	0,545
205	0,496
205,2	1,183
205,5	1,371
205,8	0,817
206	3,332
206,3	3,14
206,6	3,363
206,8	4,539
207,1	4,479
207,4	6,218
207,6	7,572
207,9	8,322
208,2	9,303
208,4	10,313
208,7	10,302
208,9	12,452
209,2	12,32
209,5	12,444
209,7	13,051
210	13,085
210,3	12,603
210,5	13,704
210,8	14,39
211,1	14,469
211,3	14,552
211,6	13,512
211,9	13,908
212,1	14,477
212,4	15,08
212,6	15,024
212,9	14,741
213,2	14,266
213,4	14,918
213,7	16,031
214	16,427
214,2	14,371
214,5	14,334
214,8	14,356
215	13,01
215,3	16,412
215,5	16,921
215,8	15,284
216,1	14,232
216,3	15,79
216,6	15,514
216,9	16,574
217,1	16,31
217,4	16,378
217,7	16,061
217,9	13,938
218,2	13,998
218,5	13,809
218,7	12,467
219	11,735
219,2	12,791
219,5	13,674
219,8	14,552
220	14,424
220,3	14,76
220,6	15,277
220,8	13,677
221,1	14,349
221,4	13,742
221,6	13,029
221,9	13,636
222,1	13,432
222,4	13,248
222,7	14,409
222,9	11,411
223,2	10,736
223,5	8,726
223,7	10,08
224	9,695
224,2	9,823
224,5	9,759
224,8	10,068
225	9,374
225,3	9,638
225,6	9,235
225,8	10,57
226,1	13,334
226,4	12,346
226,6	11,358
226,9	12,637
227,1	13,089
227,4	12,874
227,7	11,234
227,9	10,626
228,2	10,792
228,5	9,521
228,7	8,394
229	8,876
229,3	9,868
229,5	12,916
229,8	12,535
230	11,611
230,3	9,461
230,6	10,389
230,8	8,39
231,1	10,815
231,4	11,128
231,6	15,111
231,9	14,111
232,1	15,79
232,4	15,262
232,7	14,832
232,9	14,658
233,2	13,621
233,5	12,965
233,7	14,138
234	12,776
234,2	10,566
234,5	11,946
234,8	14,556
235	13,319
235,3	13,21
235,6	12,64
235,8	12,618
236,1	14,3
236,4	14,04
236,6	15,68
236,9	16,061
237,1	17,309
237,4	16,442
237,7	12,716
237,9	11,818
238,2	10,785
238,5	12,621
238,7	11,449
239	12,463
239,2	12,342
239,5	13,508
239,8	9,631
240	8,499
240,3	9,484
240,6	8,884
240,8	8,205
241,1	8,669
241,3	9,291
241,6	9,223
241,9	6,994
242,1	7,673
242,4	8,733
242,7	8,156
242,9	7,983
243,2	8,235
243,4	8,865
243,7	8,741
244	8,56
244,2	7,998
244,5	7,602
244,8	8,118
245	8,801
245,3	9,872
245,5	8,556
245,8	9,589
246,1	10,215
246,3	9,857
246,6	9,306
246,9	11,177
247,1	10,913
247,4	10,559
247,6	11,645
247,9	11,445
248,2	10,936
248,4	9,178
248,7	10,129
248,9	10,121
249,2	9,065
249,5	9,152
249,7	9,646
250	9,578
250,3	9,691
250,5	9,506
250,8	11,467
251	9,57
251,3	9,872
251,6	10,962
251,8	11,845
252,1	11,565
252,4	10,057
252,6	10,283
252,9	8,446
253,1	7,662
253,4	5,369
253,7	6,157
253,9	8,25
254,2	8,575
254,4	8,307
254,7	8,13
255	8,567
255,2	9,966
255,5	9,691
255,8	8,507
256	9,069
256,3	10,208
256,5	9,031
256,8	8,695
257,1	8,752
257,3	8,318
257,6	8,993
257,8	9,318
258,1	10,513
258,4	11,645
258,6	12,003
258,9	11,928
259,2	11,203
259,4	10,721
259,7	7,67
259,9	6,252
260,2	7,421
260,5	8,454
260,7	8,431
261	8,416
261,2	7,496
261,5	7,564
261,8	6,606
262	7,251
262,3	6,972
262,6	7,062
262,8	5,942
263,1	4,437
263,3	2,574
263,6	2,789
263,9	2,39
264,1	1,669
264,4	2,224
264,6	3,608
264,9	2,544
265,2	3,687
265,4	3,351
265,7	3,578
266	1,903
266,2	2,759
266,5	1,779
266,7	-0,1
267	-2,415
267,3	-1,306
267,5	0,308
267,8	3,05
268	4,271
268,3	3,653
268,6	1,812
268,8	2,857
269,1	1,281
269,3	0,949
269,6	1,428
269,9	2,329
270,1	-0,944
270,4	-0,601
270,6	-0,032
270,9	-0,296
271,2	-0,861
271,4	-2,332
271,7	-3,633
272	-3,867
272,2	-2,208
272,5	-3,588
272,7	-1,963
273	0,059
273,3	-0,575
273,5	1,564
273,8	0,319
274	1,858
274,3	0,511
274,6	0,492
274,8	3,381
275,1	4,86
275,3	5,426
275,6	4,102
275,9	2,11
276,1	1,439
276,4	0,806
276,6	1,726
276,9	1,202
277,2	4,471
277,4	5,561
277,7	8,247
277,9	8,986
278,2	10,023
278,5	11,053
278,7	11,89
279	11,973
279,2	12,395
279,5	13,579
279,8	14,982
280	15,805
280,3	13,312
280,5	12,316
280,8	11,558
281,1	10,181
281,3	12,018
281,6	10,291
281,9	12,139
282,1	11,577
282,4	10,702
282,6	11,535
282,9	10,332
283,2	9,031
283,4	8,137
283,7	8,511
283,9	8,933
284,2	9,246
284,5	9,163
284,7	8,126
285	7,27
285,2	4,781
285,5	6,033
285,8	3,657
286	7,017
286,3	8,556
286,5	6,976
286,8	6,598
287,1	8,284
287,3	8,281
287,6	7,726
287,8	7,809
288,1	6,127
288,4	6,583
288,6	9,849
288,9	9,536
289,1	9,785
289,4	6,587
289,7	7,813
289,9	5,678
290,2	7,937
290,4	9,872
290,7	8,009
290,9	6,455
291,2	8,216
291,5	9,782
291,7	10,162
292	11,083
292,2	10,807
292,5	12,207
292,8	14,224
293	14,119
293,3	14,718
293,5	15,152
293,8	14,356
294,1	11,943
294,3	10,411
294,6	11,034
294,8	11,467
295,1	11,317
295,4	10,947
295,6	11,339
295,9	11,69
296,1	11,102
296,4	11,924
296,7	8,164
296,9	8,081
297,2	5,859
297,4	7,145
297,7	5,369
298	7,209
298,2	5,226
298,5	6,172
298,7	7,247
299	8,529
299,3	7,805
299,5	5,569
299,8	5,814
300	5,441
300,3	5,335
300,5	5,18
300,8	3,755
301,1	5,539
301,3	6,862
301,6	5,079
301,8	3,706
302,1	3,012
302,4	3,351
302,6	3,404
302,9	3,355
303,1	2,216
303,4	2,371
303,7	4,124
303,9	2,703
304,2	3,789
304,4	3,476
304,7	5,882
304,9	3,434
305,2	7,228
305,5	7,737
305,7	7,9
306	7,534
306,2	8,25
306,5	7,515
306,8	7,398
307	6,003
307,3	5,961
307,5	7,111
307,8	5,471
308,1	4,479
308,3	5,897
308,6	4,973
308,8	6,21
309,1	6,734
309,3	7,096
309,6	6,331
309,9	8,801
310,1	7,918
310,4	8,239
310,6	8,703
310,9	7,907
311,2	8,228
311,4	8,756
311,7	8,043
311,9	8,333
312,2	8,99
312,5	9,11
312,7	8,778
313	9,623
313,2	8,861
313,5	8,254
313,7	7,56
314	7,021
314,3	6,546
314,5	7,409
314,8	8,658
315	10,095
315,3	8,567
315,6	7,375
315,8	7,526
316,1	8,364
316,3	6,787
316,6	7,877
316,8	6,904
317,1	5,218
317,4	3,257
317,6	3,498
317,9	2,329
318,1	2,001
318,4	1,99
318,6	1,326
318,9	1,273
319,2	1,518
319,4	1,36
319,7	0,632
319,9	1,737
320,2	1,039
320,5	1,168
320,7	0,794
321	0,968
321,2	-0,092
321,5	0,319
321,7	1,794
322	2,699
322,3	1,579
322,5	1,141
322,8	-1,457
323	-2,427
323,3	-0,699
323,5	1,009
323,8	2,559
324,1	2,08
324,3	3,091
324,6	2,137
324,8	3,849
325,1	2,899
325,4	3,928
325,6	4,773
325,9	4,49
326,1	6,719
326,4	5,972
326,6	5,614
326,9	6,214
327,2	6,063
327,4	6,278
327,7	7,24
327,9	7,715
328,2	8,563
328,4	8,514
328,7	10,792
329	10,86
329,2	11,29
329,5	10,559
329,7	10,743
330	10,362
330,2	12,467
330,5	13,564
330,8	14,047
331	15,48
331,3	13,889
331,5	13,093
331,8	10,528
332	10,913
332,3	9,073
332,6	9,088
332,8	7,828
333,1	9,729
333,3	10,958
333,6	11,056
333,8	12,301
334,1	10,468
334,4	10,77
334,6	10,064
334,9	8,937
335,1	8,726
335,4	7,832
335,6	8,809
335,9	6,531
336,2	5,49
336,4	5,169
336,7	2,657
336,9	4,215
337,2	4,46
337,4	5,199
337,7	4,347
338	2,435
338,2	1,499
338,5	-0,273
338,7	1,266
339	0,896
339,2	2,993
339,5	1,243
339,8	2,948
340	3,732
340,3	4,551
340,5	4,947
340,8	7,511
341	7,3
341,3	5,03
341,6	4,622
341,8	4,302
342,1	3,879
342,3	4,015
342,6	5,746
342,8	7,126
343,1	7,194
343,4	6,806
343,6	4,588
343,9	6,293
344,1	7,349
344,4	6,84
344,6	6,614
344,9	5,822
345,1	5,429
345,4	4,826
345,7	4,713
345,9	6,617
346,2	6,055
346,4	5,203
346,7	3,329
346,9	3,611
347,2	1,628
347,5	3,238
347,7	3,472
348	1,767
348,2	2,982
348,5	2,589
348,7	4,075
349	4,098
349,2	6,097
349,5	6,353
349,8	6,297
350	6,24
350,3	6,527
350,5	5,81
350,8	5,693
351	5,452
351,3	6,425
351,6	5,871
351,8	4,124
352,1	2,872
352,3	3,385
352,6	4,041
352,8	3,483
353,1	2,963
353,3	2,574
353,6	1,556
353,9	0,934
354,1	0,888
354,4	1,907
354,6	3,928
354,9	2,925
355,1	4,69
355,4	4,4
355,6	4,999
355,9	5,754
356,2	5,252
356,4	5,682
356,7	1,828
356,9	1,888
357,2	1,322
357,4	1,854
357,7	1,613
358	4,498
358,2	3,793
358,5	4,011
358,7	2,819
359	3,857
359,2	4,483
359,5	4,343
359,7	6,874
360	7,198
360,3	8,974
360,5	9,246
360,8	9,887
361	11,686
361,3	10,762
361,5	12,535
361,8	12,535
362	13,904
362,3	13,73
362,6	13,606
362,8	15,665
363,1	16,099
363,3	16,672
363,6	16,593
363,8	17,709
364,1	15,839
364,3	16,046
364,6	16,061
364,8	16,121
365,1	15,235
365,4	16,676
365,6	16,683
365,9	15,424
366,1	15,872
366,4	15,488
366,6	17,094
366,9	17,423
367,1	17,807
367,4	21,235
367,7	21,681
367,9	22,737
368,2	22,28
368,4	20,157
368,7	20,636
368,9	21,379
369,2	20,244
369,4	20,293
369,7	22,08
370	21,1
370,2	20,926
370,5	21,107
370,7	20,459
371	20,692
371,2	21,002
371,5	21,616
371,7	21,401
372	23,664
372,2	23,574
372,5	24,735
372,8	24,087
373	23,48
373,3	20,519
373,5	22,405
373,8	20,971
374	20,508
374,3	21,869
374,5	21,696
374,8	22,254
375	21,748
375,3	20,674
375,6	19,139
375,8	20,01
376,1	20,606
376,3	23,087
376,6	22,152
376,8	19,248
377,1	23,099
377,3	22,823
377,6	19,949
377,8	20,934
378,1	22,416
378,4	22,144
378,6	21,454
378,9	19,535
379,1	19,791
379,4	19,154
379,6	18,098
379,9	16,231
380,1	16,253
380,4	16,521
380,6	16,653
380,9	16,966
381,2	18,403
381,4	17,532
381,7	19,497
381,9	20,549
382,2	20,055
382,4	20,055
382,7	18,12
382,9	18,562
383,2	18,969
383,4	19,67
383,7	20,817
383,9	19,105
384,2	18,803
384,5	20,334
384,7	21,813
385	20,591
385,2	21,085
385,5	22,28
385,7	21,711
386	21,33
386,2	21,458
386,5	20,428
386,7	21,892
387	21,228
387,2	21,688
387,5	23,106
387,8	24,916
388	26,218
388,3	27,002
388,5	28,005
388,8	29,567
389	29,767
389,3	28,835
389,5	27,53
389,8	29,091
390	28,02
390,3	28,073
390,5	28,48
390,8	30,212
391,1	29,491
391,3	29,299
391,6	27,956
391,8	28,82
392,1	28,096
392,3	29,088
392,6	29,827
392,8	31,219
393,1	34,454
393,3	37,215
393,6	37,679
393,8	38,26
394,1	39,919
394,4	43,001
394,6	43,706
394,9	45,037
395,1	45,656
395,4	44,211
395,6	45,241
395,9	44,14
396,1	43,182
396,4	43,668
396,6	43,717
396,9	43,102
397,1	43,415
397,4	45,075
397,6	43,193
397,9	44,615
398,2	45,229
398,4	47,82
398,7	47,477
398,9	47,455
399,2	48,48
399,4	48,729
399,7	48,601
399,9	48,533
400,2	46,968
400,4	47,44
400,7	47,715
400,9	45,543
401,2	44,577
401,4	45,082
401,7	44,543
401,9	43,517
402,2	40,806
402,5	41,081
402,7	39,157
403	38,641
403,2	40,625
403,5	40,044
403,7	40,153
404	41,549
404,2	40,304
404,5	41,854
404,7	43,623
405	45,784
405,2	46,093
405,5	46,825
405,7	48,488
406	49,058
406,2	49,423
406,5	50,068
406,7	49,921
407	48,748
407,3	49,446
407,5	49,333
407,8	50,46
408	49,42
408,3	48,771
408,5	48,801
408,8	47,5
409	47,764
409,3	48,088
409,5	50,004
409,8	49,212
410	50,585
410,3	50,121
410,5	53,285
410,8	52,271
411	52,078
411,3	53,881
411,5	54,896
411,8	53,753
412	53,874
412,3	54,809
412,6	55,707
412,8	54,243
413,1	53,696
413,3	54,571
413,6	53,18
413,8	53,662
414,1	51,863
414,3	51,377
414,6	52,991
414,8	52,259
415,1	51,343
415,3	51,909
415,6	53,161
415,8	54,583
416,1	55,741
416,3	54,522
416,6	57,162
416,8	56,08
417,1	57,423
417,3	54,73
417,6	56,095
417,8	57,215
418,1	57,837
418,4	57,951
418,6	60,413
418,9	61,492
419,1	60,41
419,4	59,772
419,6	60,726
419,9	62,484
420,1	60,266
420,4	59,584
420,6	59,802
420,9	58,052
421,1	57,592
421,4	58,528
421,6	58,298
421,9	58,754
422,1	56,849
422,4	56,012
422,6	57,675
422,9	56,506
423,1	56,766
423,4	56,823
423,6	57,159
423,9	57,8
424,1	59,444
424,4	57,532
424,6	57,468
424,9	56,932
425,1	57,064
425,4	55,152
425,6	56,416
425,9	55,148
426,2	54,258
426,4	52,75
426,7	51,946
426,9	51,049
427,2	50,193
427,4	49,261
427,7	48,134
427,9	47,323
428,2	47,292
428,4	48,051
428,7	48,65
428,9	49,555
429,2	49,899
429,4	49,374
429,7	48,858
429,9	47,945
430,2	46,847
430,4	46,697
430,7	49,027
430,9	48,99
431,2	48,39
431,4	48,778
431,7	48,865
431,9	46,81
432,2	48,428
432,4	47,968
432,7	46,629
432,9	48,952
433,2	51,709
433,4	49,8
433,7	50,785
433,9	50,672
434,2	50,219
434,4	49,337
434,7	50,717
434,9	52,158
435,2	51,543
435,4	51,765
435,7	53,312
435,9	53,165
436,2	54,628
436,4	55,823
436,7	54,5
436,9	53,063
437,2	51,928
437,4	52,848
437,7	55,45
437,9	57,076
438,2	56,698
438,4	56,476
438,7	56,08
438,9	55,141
439,2	53,53
439,4	50,502
439,7	51,897
439,9	50,981
440,2	51,335
440,5	52,354
440,7	51,837
441	51,403
441,2	52,444
441,5	52,331
441,7	52,32
442	52,784
442,2	53,651
442,5	52,003
442,7	52,259
443	53,274
443,2	54,077
443,5	52,614
443,7	53,021
444	49,985
444,2	50,521
444,5	51,935
444,7	53,27
445	54,334
445,2	53,681
445,5	51,796
445,7	52,456
446	52,078
446,2	51,875
446,5	53,138
446,7	54,36
447	54,967
447,2	56,936
447,5	57,513
447,7	56,781
448	56,721
448,2	57,683
448,5	57,249
448,7	57,626
449	56,253
449,2	56,318
449,5	56,627
449,7	56,25
450	56,148
450,2	58,497
450,5	57,781
450,7	58,837
451	57,675
451,2	58,516
451,5	57,804
451,7	59,908
452	61,341
452,2	60,398
452,5	59,708
452,7	59,885
452,9	60,266
453,2	59,689
453,4	60,263
453,7	62,254
453,9	61,126
454,2	59,738
454,4	58,294
454,7	60,496
454,9	60,112
455,2	59,327
455,4	59,365
455,7	61,707
455,9	59,602
456,2	59,636
456,4	59,361
456,7	59,923
456,9	59,64
457,2	59,029
457,4	60,873
457,7	62,514
457,9	62,08
458,2	62,507
458,4	62,367
458,7	64,049
458,9	63,238
459,2	63,732
459,4	64,984
459,7	65,196
459,9	64,845
460,2	65,957
460,4	65,203
460,7	67,062
460,9	70,132
461,2	69,397
461,4	68,801
461,7	71,143
461,9	71,777
462,2	72,112
462,4	71,29
462,7	73,263
462,9	72,893
463,2	73,474
463,4	72,09
463,7	73,048
463,9	73,674
464,2	73,029
464,4	73,813
464,7	74,666
464,9	73,866
465,2	73,342
465,4	72,618
465,7	74,273
465,9	75,85
466,2	76,921
466,4	76,585
466,6	78,347
466,9	77,332
467,1	75,45
467,4	74,3
467,6	76,521
467,9	75,024
468,1	75,51
468,4	74,013
468,6	72,95
468,9	71,63
469,1	70,725
469,4	70,37
469,6	70,981
469,9	71,939
470,1	73,334
470,4	70,758
470,6	73,01
470,9	74,187
471,1	74,922
471,4	74,813
471,6	74,119
471,9	76,05
472,1	76,099
472,4	75,326
472,6	77,317
472,9	77,128
473,1	77,777
473,4	77,8
473,6	77,475
473,9	75,047
474,1	75,028
474,3	74,979
474,6	77,049
474,8	76,551
475,1	76,446
475,3	75,39
475,6	76,227
475,8	77,634
476,1	79,569
476,3	78,958
476,6	80,949
476,8	81,997
477,1	84,004
477,3	84,045
477,6	84,95
477,8	84,117
478,1	85,761
478,3	85,856
478,6	87,511
478,8	86,221
479,1	85,754
479,3	86,101
479,6	86,225
479,8	86,025
480,1	87,96
480,3	88,484
480,5	88,624
480,8	87,24
481	87,262
481,3	87,228
481,5	89,095
481,8	88,349
482	89,137
482,3	88,831
482,5	88,235
482,8	88,79
483	89,371
483,3	90,31
483,5	92,501
483,8	90,559
484	91,29
484,3	89,744
484,5	91,121
484,8	91,056
485	91,279
485,2	90,491
485,5	92,214
485,7	92,282
486	92,154
486,2	91,158
486,5	93,734
486,7	94,918
487	96,593
487,2	96,186
487,5	97,166
487,7	98,298
488	97,121
488,2	97,46
488,5	98,316
488,7	96,201
489	95,71
489,2	95,827
489,5	96,925
489,7	97,607
489,9	95,812
490,2	96,638
490,4	97,193
490,7	97,683
490,9	96,468
491,2	93,923
491,4	96,665
491,7	97,868
491,9	98,709
492,2	97,887
492,4	96,023
492,7	96,691
492,9	98,66
493,2	97,4
493,4	96,744
493,6	95,891
493,9	96,74
494,1	94,647
494,4	94,194
494,6	93,274
494,9	92,452
495,1	91,694
495,4	90,611
495,6	92,339
495,9	94,285
496,1	95,326
496,4	97,313
496,6	98,603
496,9	101,33
497,1	101,417
497,3	100,896
497,6	102,461
497,8	105,339
498,1	103,823
498,3	103,521
498,6	102,865
498,8	102,876
499,1	102,378
499,3	103,023
499,6	105,162
499,8	106,157
500,1	105,226
500,3	105,32
500,6	103,928
500,8	104,045
501	106,474
501,3	105,445
501,5	103,374
501,8	105,173
502	107,421
502,3	105,833
502,5	104,739
502,8	105,682
503	107,877
503,3	105,629
503,5	102,899
503,8	103,876
504	102,997
504,2	103,544
504,5	102,08
504,7	102,914
505	102,333
505,2	103,563
505,5	103,366
505,7	105,23
506	104,637
506,2	107,277
506,5	107,462
506,7	106,044
506,9	104,747
507,2	103,823
507,4	101,413
507,7	104,204
507,9	104,464
508,2	106,018
508,4	105,184
508,7	103,796
508,9	104,747
509,2	106,501
509,4	106,542
509,7	106,35
509,9	108,511
510,1	109,929
510,4	109,291
510,6	106,682
510,9	109,129
511,1	111,498
511,4	111,124
511,6	111,622
511,9	110,215
512,1	108,394
512,4	108,718
512,6	109,367
512,8	107,719
513,1	106,165
513,3	105,803
513,6	105,874
513,8	105,871
514,1	105,226
514,3	105,626
514,6	106,237
514,8	105,78
515,1	106,538
515,3	105,407
515,5	105,637
515,8	105,463
516	106,568
516,3	106,369
516,5	106,093
516,8	104,905
517	103,74
517,3	102,982
517,5	102,854
517,7	102,567
518	102,593
518,2	102,925
518,5	102,601
518,7	101,417
519	100,036
519,2	100,583
519,5	100,919
519,7	100,606
520	99,689
520,2	99,885
520,4	102,439
520,7	104,822
520,9	104,581
521,2	104,811
521,4	103,51
521,7	106,655
521,9	106,674
522,2	105,271
522,4	107,247
522,6	108,039
522,9	108,171
523,1	108,243
523,4	108,658
523,6	107,194
523,9	108,771
524,1	109,785
524,4	109,378
524,6	109,782
524,8	108,571
525,1	108,379
525,3	109,774
525,6	110,532
525,8	111,445
526,1	110,883
526,3	111,818
526,6	111,343
526,8	109,997
527	111,724
527,3	112,184
527,5	112,097
527,8	112,067
528	109,846
528,3	110,091
528,5	110,163
528,8	109,567
529	109,314
529,2	110,065
529,5	109,11
529,7	111,826
530	111
530,2	111,211
530,5	109,993
530,7	109,68
531	108,805
531,2	110,227
531,4	108,745
531,7	109,314
531,9	109,767
532,2	110,023
532,4	110,461
532,7	110,513
532,9	108,884
533,2	107,594
533,4	106,519
533,6	106,301
533,9	104,841
534,1	105,184
534,4	105,675
534,6	106,225
534,9	105,754
535,1	105,924
535,3	105,675
535,6	106,418
535,8	103,744
536,1	105,162
536,3	105,328
536,6	107,568
536,8	106,188
537,1	107,715
537,3	106,052
537,5	105,218
537,8	105,305
538	106,037
538,3	104,158
538,5	103,713
538,8	103,612
539	102,556
539,2	102,19
539,5	101,994
539,7	103,593
540	104,954
540,2	106,568
540,5	106,995
540,7	108,375
540,9	108,42
541,2	108,232
541,4	111,309
541,7	113,998
541,9	114,206
542,2	111,716
542,4	111,667
542,7	110,819
542,9	111,215
543,1	110,808
543,4	114,13
543,6	113,395
543,9	114,145
544,1	113,123
544,4	111,909
544,6	111,03
544,8	111,607
545,1	111,788
545,3	111,147
545,6	111,373
545,8	113,202
546,1	112,829
546,3	112,399
546,5	113,21
546,8	114,236
547	115,039
547,3	113,7
547,5	112,418
547,8	110,736
548	111,053
548,2	111,532
548,5	110,728
548,7	111,596
549	108,707
549,2	108,711
549,5	107,904
549,7	107,983
549,9	108,013
550,2	108,043
550,4	107,432
550,7	108,1
550,9	104,06
551,2	104,321
551,4	104,083
551,6	103,042
551,9	103,05
552,1	102,608
552,4	102,363
552,6	100,998
552,9	103,065
553,1	101,801
553,3	101,881
553,6	102,224
553,8	101,036
554,1	102,989
554,3	101,002
554,5	99,667
554,8	97,592
555	96,608
555,3	94,847
555,5	94,492
555,8	92,293
556	92,29
556,2	89,857
556,5	90,042
556,7	87,319
557	87,866
557,2	86,889
557,5	87,243
557,7	88,846
557,9	87,602
558,2	86,527
558,4	88,767
558,7	86,221
558,9	86,474
559,2	86,821
559,4	86,478
559,6	87,006
559,9	86,806
560,1	85,758
560,4	85,403
560,6	85,196
560,8	84,177
561,1	83,189
561,3	84,773
561,6	83,299
561,8	83,035
562,1	82,857
562,3	83,514
562,5	83,838
562,8	86,35
563	85,181
563,3	85,735
563,5	85,995
563,7	86,006
564	84,766
564,2	84,585
564,5	84,306
564,7	86,47
565	87,04
565,2	85,135
565,4	86,157
565,7	88,827
565,9	87,093
566,2	88,722
566,4	88,435
566,6	89,759
566,9	90,494
567,1	91,732
567,4	91,652
567,6	92,818
567,9	90,909
568,1	93,138
568,3	93,742
568,6	93,994
568,8	94,202
569,1	92,788
569,3	91,837
569,5	91,969
569,8	93,127
570	93,659
570,3	93,255
570,5	95,062
570,7	95,118
571	96,269
571,2	98,06
571,5	98,946
571,7	98,667
572	98,86
572,2	97,415
572,4	98,102
572,7	100,334
572,9	101,534
573,2	99,233
573,4	98,818
573,6	97,562
573,9	97,913
574,1	96,027
574,4	93,776
574,6	93,093
574,8	91,962
575,1	92,776
575,3	93,663
575,6	92,478
575,8	92,033
576	92,048
576,3	90,721
576,5	94,439
576,8	97,381
577	98,984
577,3	99,957
577,5	99,98
577,7	100,681
578	101,303
578,2	101,345
578,5	100,085
578,7	100,983
578,9	102,97
579,2	103,449
579,4	103,427
579,7	103,774
579,9	103,404
580,1	102,258
580,4	102,111
580,6	103,212
580,9	106,116
581,1	107,308
581,3	107,734
581,6	106,602
581,8	108,767
582,1	109,144
582,3	111,087
582,5	111,713
582,8	113,832
583	116,725
583,3	119,678
583,5	119,78
583,7	122,993
584	121,179
584,2	121,247
584,5	121,379
584,7	121,945
584,9	123,932
585,2	123,989
585,4	125,294
585,7	126,263
585,9	126,648
586,1	126,723
586,4	125,754
586,6	127,968
586,9	127,764
587,1	128,669
587,3	129,495
587,6	131,09
587,8	131,113
588,1	131,996
588,3	131,905
588,5	133,153
588,8	133,3
589	136,412
589,3	137,619
589,5	138,286
589,7	140,749
590	141,726
590,2	143,329
590,5	142,499
590,7	142,145
590,9	145,599
591,2	145,701
591,4	147,707
591,7	151,683
591,9	155,533
592,1	157,336
592,4	158,909
592,6	160,945
592,9	161,967
593,1	165,188
593,3	168,111
593,6	171,019
593,8	174,869
594,1	177,694
594,3	181,552
594,5	184,272
594,8	186,965
595	191,226
595,3	195,326
595,5	200,892
595,7	204,924
596	209,258
596,2	213,304
596,4	219,335
596,7	222,94
596,9	226,991
597,2	228,922
597,4	234,104
597,6	235,586
597,9	238,72
598,1	243,831
598,4	247,892
598,6	251,758
598,8	255,439
599,1	256,19
599,3	259,803
599,6	263,121
599,8	268,039
600	273,406
600,3	278,494
600,5	281,428
600,7	286,821
601	291,562
601,2	295,454
601,5	298,543
601,7	303,023
601,9	308,066
602,2	313,425
602,4	316,446
602,7	319,169
602,9	321,157
603,1	325
603,4	328,586
603,6	332,524
603,9	334,9
604,1	338,705
604,3	342,907
604,6	346,795
604,8	350,061
605	354,99
605,3	358,758
605,5	361,296
605,8	362,79
606	367,417
606,2	371,136
606,5	374,251
606,7	374,451
607	377,065
607,2	377,038
607,4	377,612
607,7	379,275
607,9	381,888
608,1	384,898
608,4	386,203
608,6	387,429
608,9	389,899
609,1	391,449
609,3	393,199
609,6	393,727
609,8	395,662
610,1	397,468
610,3	396,718
610,5	396,876
610,8	397,559
611	398,988
611,2	399,773
611,5	400,93
611,7	400,998
612	403,125
612,2	402,481
612,4	403,156
612,7	403,514
612,9	405,769
613,1	406,018
613,4	406,984
613,6	406,58
613,9	408,217
614,1	409,307
614,3	410,699
614,6	413,025
614,8	414,545
615	414,643
615,3	415,341
615,5	415,76
615,8	415,522
616	416,865
616,2	417,566
616,5	419,988
616,7	420,961
616,9	422,398
617,2	423,107
617,4	425,204
617,7	427,251
617,9	427,776
618,1	427,764
618,4	427,61
618,6	427,259
618,8	429,812
619,1	431,992
619,3	432,705
619,6	433,557
619,8	432,799
620	433,644
620,3	432,652
620,5	435,435
620,7	434,327
621	434,255
621,2	433,218
621,5	434,059
621,7	434,01
621,9	433,98
622,2	433,614
622,4	434,459
622,6	434,708
622,9	432,867
623,1	434,968
623,4	433,78
623,6	433,667
623,8	433,237
624,1	432,09
624,3	431,574
624,5	431,136
624,8	430,981
625	429,71
625,3	430,732
625,5	430,616
625,7	431,117
626	430,521
626,2	428,945
626,4	427,101
626,7	424,743
626,9	425,354
627,1	425,803
627,4	424,898
627,6	424,313
627,9	422,571
628,1	421,579
628,3	422,677
628,6	423,231
628,8	423,405
629	423,325
629,3	423,917
629,5	424,751
629,8	423,137
630	422,62
630,2	421,549
630,5	420,278
630,7	420,248
630,9	419,614
631,2	417,883
631,4	418,008
631,6	416,906
631,9	415,982
632,1	414,874
632,4	416,759
632,6	416,152
632,8	416,752
633,1	416,914
633,3	418,14
633,5	417,468
633,8	417,163
634	419,475
634,2	419,241
634,5	418,735
634,7	420,142
635	420,267
635,2	421,421
635,4	423,431
635,7	424,702
635,9	423,929
636,1	424,329
636,4	423,763
636,6	421,285
636,8	420,915
637,1	421,956
637,3	422,171
637,5	422,858
637,8	422,103
638	422,326
638,3	421,568
638,5	422,42
638,7	420,704
639	422,326
639,2	422,839
639,4	421,941
639,7	420,942
639,9	418,973
640,1	421,338
640,4	421,753
640,6	419,686
640,9	419,693
641,1	420,308
641,3	417,431
641,6	416,989
641,8	416,273
642	414,198
642,3	412,283
642,5	410,638
642,7	406,776
643	406,165
643,2	403,955
643,4	400,474
643,7	398,83
643,9	398,807
644,1	396,193
644,4	395,937
644,6	394,002
644,9	393,546
645,1	391,826
645,3	390,827
645,6	389,299
645,8	385,452
646	386,097
646,3	382,978
646,5	380,365
646,7	379,614
647	377,838
647,2	377,314
647,4	372,86
647,7	369,925
647,9	370,755
648,1	369,993
648,4	367,806
648,6	366,603
648,9	365,162
649,1	365,449
649,3	365,803
649,6	364,89
649,8	364,675
650	364,487
650,3	360,316
650,5	361,311
650,7	360,844
651	359,984
651,2	359,856
651,4	358,505
651,7	354,753
651,9	353,667
652,1	352,716
652,4	352,022
652,6	350,4
652,8	349,394
653,1	348,718
653,3	345,577
653,5	344,483
653,8	343,091
654	342,548
654,3	340,391
654,5	339,339
654,7	337,234
655	335,435
655,2	333,263
655,4	330,367
655,7	330,363
655,9	332,663
656,1	332,807
656,4	329,857
656,6	327,504
656,8	332,72
657,1	333,444
657,3	333,346
657,5	331,932
657,8	331,917
658	332,584
658,2	332,452
658,5	331,136
658,7	331,841
658,9	332,844
659,2	332,094
659,4	329,748
659,6	330,276
659,9	331,883
660,1	331,358
660,3	332,177
660,6	332,569
660,8	332,592
661	332,207
661,3	330,389
661,5	330,114
661,8	329,691
662	329,884
662,2	331,121
662,5	330,299
662,7	331,37
662,9	329,024
663,2	327,21
663,4	322,963
663,6	321,866
663,9	322,522
664,1	317,087
664,3	315,556
664,6	315,047
664,8	314,195
665	313,248
665,3	311,992
665,5	311,159
665,7	312,199
666	311,57
666,2	310,05
666,4	310,14
666,7	310,408
666,9	308,854
667,1	307,176
667,4	308,024
667,6	306,75
667,8	305,788
668,1	304,807
668,3	304,819
668,5	305,52
668,8	304,958
669	303,883
669,2	305,147
669,5	304,404
669,7	304,611
669,9	301,711
670,2	301,813
670,4	300,153
670,6	300,821
670,9	301,39
671,1	299,007
671,3	298,177
671,6	295,831
671,8	295,175
672	296,182
672,3	295,673
672,5	296,299
672,7	294,564
673	293,003
673,2	291,045
673,4	292,407
673,7	291,988
673,9	291,494
674,1	290,272
674,4	289,574
674,6	287,508
674,8	286,323
675,1	285,901
675,3	284,438
675,5	284,359
675,8	282,895
676	282,85
676,2	284,162
676,5	281,971
676,7	282,103
676,9	279,999
677,2	280,704
677,4	279,312
677,6	278,664
677,9	277,951
678,1	276,718
678,3	277,476
678,5	275,993
678,8	274,398
679	274,013
679,2	273,497
679,5	273,346
679,7	271,072
679,9	272,128
680,2	270,563
680,4	272,531
680,6	269,39
680,9	269,103
681,1	268,371
681,3	269,673
681,6	266,825
681,8	267,417
682	266,165
682,3	267,115
682,5	267,002
682,7	264,807
683	262,869
683,2	260,485
683,4	256,929
683,7	253,429
683,9	251,709
684,1	249,993
684,4	248,107
684,6	246,354
684,8	242,646
685,1	240,862
685,3	238,89
685,5	236,872
685,7	234,364
686	232,58
686,2	229,586
686,4	226,38
686,7	221,707
686,9	219,697
687,1	216,51
687,4	214,96
687,6	210,249
687,8	209,503
688,1	207,127
688,3	205,143
688,5	202,333
688,8	204,815
689	201,933
689,2	203,208
689,5	199,391
689,7	197,351
689,9	195,051
690,2	194,398
690,4	194,443
690,6	192,98
690,8	193,712
691,1	191,419
691,3	190,63
691,5	189,872
691,8	188,62
692	190,826
692,2	192,686
692,5	192,165
692,7	191,622
692,9	192,033
693,2	191,471
693,4	192,026
693,6	192,218
693,9	193,938
694,1	194,828
694,3	195,722
694,5	195,586
694,8	195,786
695	195,198
695,2	193,753
695,5	193,229
695,7	192,806
695,9	191,505
696,2	190,97
696,4	189,82
696,6	189,869
696,9	189,725
697,1	193,723
697,3	194,915
697,6	195,239
697,8	195,967
698	196,163
698,2	195,609
698,5	195,756
698,7	196,374
698,9	197,23
699,2	196,661
699,4	194,081
699,6	194,655
699,9	193,006
700,1	192,377
700,3	194,259
700,6	194,289
700,8	195,661
701	195,39
701,2	194,451
701,5	193,783
701,7	193,467
701,9	192,539
702,2	194,247
702,4	196,197
702,6	196,34
702,9	195,514
703,1	193,169
703,3	194,093
703,6	193,927
703,8	194,741
704	195,02
704,2	190,615
704,5	189,967
704,7	189,654
704,9	189,895
705,2	189,499
705,4	190,008
705,6	190,623
705,9	190,634
706,1	191,581
706,3	190,4
706,5	189,046
706,8	188,828
707	189,45
707,2	190,084
707,5	188,164
707,7	187,055
707,9	186,391
708,2	185,007
708,4	184,392
708,6	183,499
708,8	182,624
709,1	183,495
709,3	180,523
709,5	178,456
709,8	177,751
710	178,86
710,2	178,351
710,5	177,838
710,7	175,578
710,9	173,987
711,1	172,727
711,4	173,723
711,6	172,41
711,8	173,131
712,1	172,693
712,3	172,516
712,5	172,113
712,8	171,777
713	169,318
713,2	167,01
713,4	166,297
713,7	165,614
713,9	163,468
714,1	163,287
714,4	160,455
714,6	158,275
714,8	155,809
715,1	151,999
715,3	150,117
715,5	146,538
715,7	144,332
716	140,994
716,2	137,577
716,4	135,854
716,7	133,003
716,9	132,674
717,1	128,284
717,3	127,089
717,6	125,037
717,8	124,189
718	122,277
718,3	120,704
718,5	119,12
718,7	118,113
718,9	114,971
719,2	112,131
719,4	111,128
719,6	107,489
719,9	104,894
720,1	104,166
720,3	102,201
720,6	98,554
720,8	97,894
721	97,253
721,2	95,288
721,5	94,82
721,7	94,439
721,9	93,938
722,2	93,112
722,4	93,327
722,6	96,22
722,8	96,321
723,1	99,158
723,3	100,843
723,5	100,9
723,8	101,541
724	99,414
724,2	99,916
724,4	100,591
724,7	101,119
724,9	101,379
725,1	102,107
725,4	103,6
725,6	101,394
725,8	100,632
726	99,565
726,3	98,019
726,5	96,665
726,7	97,423
727	95,243
727,2	94,387
727,4	95,05
727,6	96,295
727,9	97,185
728,1	96,631
728,3	96,849
728,6	98,697
728,8	99,444
729	98,482
729,2	101,394
729,5	101,277
729,7	99,874
729,9	100,847
730,2	99,927
730,4	100,153
730,6	100,493
730,8	99,395
731,1	100,915
731,3	102,141
731,5	100,907
731,7	99,55
732	99,867
732,2	99,406
732,4	98,694
732,7	100,534
732,9	99,761
733,1	99,818
733,3	100,874
733,6	101,552
733,8	101,843
734	107,104
734,3	108,107
734,5	110,909
734,7	113,282
734,9	112,414
735,2	115,85
735,4	116,242
735,6	114,802
735,9	115,831
736,1	118,407
736,3	118,003
736,5	118,011
736,8	118,482
737	117,656
737,2	117,155
737,4	116,042
737,7	116,201
737,9	119,704
738,1	118,482
738,4	117,781
738,6	119,489
738,8	120,161
739	118,92
739,3	120,285
739,5	119,478
739,7	119,621
739,9	122,888
740,2	124,313
740,4	124,92
740,6	124,883
740,9	124,852
741,1	123,152
741,3	122,582
741,5	120,677
741,8	119,425
742	120,693
742,2	119,58
742,4	119,618
742,7	120,33
742,9	119,508
743,1	117,815
743,4	116,729
743,6	116,057
743,8	115,967
744	117,125
744,3	117,664
744,5	116,638
744,7	117,193
744,9	116,748
745,2	118,754
745,4	118,35
745,6	116,736
745,8	116,872
746,1	117,822
746,3	118,845
746,5	121,051
746,8	119,901
747	119,587
747,2	119,912
747,4	120,674
747,7	120,406
747,9	121,707
748,1	119,961
748,3	121,322
748,6	121,496
748,8	119,342
749	118,32
749,2	116,763
749,5	115,759
749,7	115,91
749,9	116,163
750,2	118,358
750,4	118,381
750,6	118,78
750,8	117,883
751,1	117,162
751,3	116,555
751,5	118,777
751,7	119,361
752	117,913
752,2	117,404
752,4	116,917
752,6	117,113
752,9	116,061
753,1	114,194
753,3	113,289
753,5	112,463
753,8	113,444
754	111,528
754,2	111,351
754,4	110,313
754,7	109,895
754,9	108,741
755,1	109,397
755,4	108,1
755,6	108,42
755,8	109,567
756	108,303
756,3	105,629
756,5	104,094
756,7	100,27
756,9	97,83
757,2	93,244
757,4	90,702
757,6	86,523
757,8	83,008
758,1	81,138
758,3	80,164
758,5	76,333
758,7	71,788
759	67,564
759,2	65,663
759,4	63,781
759,6	62,043
759,9	59,904
760,1	59,146
760,3	54,964
760,5	51,686
760,8	49,046
761	46,991
761,2	44,358
761,4	43,698
761,7	42,088
761,9	41,688
762,1	38,682
762,3	36,321
762,6	32,84
762,8	30,977
763	29,687
763,2	33,18
763,5	33,285
763,7	33,764
763,9	34,021
764,1	35,529
764,4	36,465
764,6	38,829
764,8	41,662
765	40,741
765,3	39,723
765,5	40,553
765,7	41,869
765,9	44,268
766,2	44,536
766,4	46,35
766,6	45,678
766,8	46,274
767,1	47,564
767,3	49,016
767,5	50,204
767,7	51,86
768	52,29
768,2	54,126
768,4	54,104
768,6	53,647
768,9	52,237
769,1	53,376
769,3	55,122
769,5	56,114
769,8	58,064
770	60,198
770,2	57,962
770,4	59,248
770,7	60,451
770,9	61,522
771,1	61,269
771,3	61,828
771,6	62,341
771,8	62,533
772	62,936
772,2	62,85
772,5	64,211
772,7	64,343
772,9	63,94
773,1	62,899
773,4	63,332
773,6	64,883
773,8	64,072
774	62,782
774,3	62,903
774,5	62,227
774,7	61,017
774,9	61,42
775,2	59,723
775,4	60,515
775,6	60,617
775,8	61,677
776	62,356
776,3	61,175
776,5	61,085
776,7	59,983
776,9	58,931
777,2	58,716
777,4	57,638
777,6	57,283
777,8	57,155
778,1	57,453
778,3	56,706
778,5	55,552
778,7	55,79
779	55,597
779,2	56,265
779,4	55,194
779,6	55,424
779,9	54,922
780,1	55,341
780,3	53,557
780,5	51,912
780,7	52,067
781	53,636
781,2	53,81
781,4	52,237
781,6	52,931
781,9	52,712
782,1	51,411
782,3	49,985
782,5	49,265
782,8	48,424
783	49,159
783,2	48,956
783,4	48,677
783,7	47,553
783,9	45,867
784,1	44,701
784,3	43,974
784,5	42,918
784,8	40,066
785	38,599
785,2	37,732
785,4	37,856
785,7	36,348
785,9	37,453
786,1	36,736
786,3	37
786,6	36,759
786,8	38,003
787	38,124
787,2	38,893
787,4	38,769
787,7	39,305
787,9	38,237
788,1	37,57
788,3	38,463
788,6	36,868
788,8	34,345
789	33,15
789,2	32,15
789,5	31,626
789,7	29,767
789,9	28,122
790,1	27,111
790,3	26,512
790,6	27,685
790,8	28,194
791	29,148
791,2	30,679
791,5	32,735
791,7	33,285
791,9	33,255
792,1	33,504
792,3	32,369
792,6	31,833
792,8	29,453
793	31,037
793,2	31,554
793,5	31,554
793,7	30,996
793,9	29,676
794,1	28,371
794,3	28,258
794,6	29,163
794,8	28,473
795	28,959
795,2	28,673
795,5	29,001
795,7	29,751
795,9	32,112
796,1	30,683
796,3	30,547
796,6	33,214
796,8	33,085
797	34,899
797,2	36,419
797,5	37,038
797,7	37,193
797,9	35,967
798,1	35,541
798,3	42,491
798,6	44,309
798,8	46,448
799	46,991
799,2	48,084
799,5	49,118
799,7	50,54
799,9	48,22
800,1	45,505
800,3	44,728
800,6	44,419
800,8	45,082
801	46,395
801,2	45,984
801,5	45,03
801,7	43,728
801,9	43,453
802,1	44,396
802,3	45,09
802,6	45,279
802,8	43,559
803	45,818
803,2	46,949
803,4	45,286
803,7	45,656
803,9	44,189
804,1	42,71
804,3	41,545
804,6	42,054
804,8	43,114
805	41,386
805,2	32,15
805,4	30,623
805,7	30,117
805,9	28,254
806,1	27,949
806,3	27,213
806,5	26,244
806,8	24,577
807	25,976
807,2	26,214
807,4	26,052
807,6	23,849
807,9	22,027
808,1	22,518
808,3	22,906
808,5	25,701
808,8	26,557
809	24,313
809,2	25,433
809,4	25,599
809,6	25,656
809,9	24,256
810,1	22,884
810,3	23,902
810,5	23,246
810,7	21,899
811	20,934
811,2	20,032
811,4	19,108
811,6	17,86
811,8	18,72
812,1	18,652
812,3	18,399
812,5	16,087
812,7	16,434
812,9	16,815
813,2	17,845
813,4	17,49
813,6	19,018
813,8	18,181
814	16,861
814,3	15,937
814,5	17,626
814,7	16,774
814,9	14,971
815,2	14,356
815,4	12,324
815,6	10,955
815,8	10,389
816	8,386
816,3	7,707
816,5	6,61
816,7	7,353
816,9	7,741
817,1	6,791
817,4	5,882
817,6	6,666
817,8	6,493
818	6,116
818,2	5,852
818,5	5,309
818,7	4,196
818,9	2,718
819,1	4
819,3	4,241
819,6	5,825
819,8	7,172
820	4,935
820,2	4,23
820,4	4,498
820,7	4,645
820,9	5,965
821,1	6,715
821,3	5,806
821,5	7,39
821,8	8,322
822	7,134
822,2	8,401
822,4	7,213
822,6	7,915
822,9	7,971
823,1	6,764
823,3	7,647
823,5	6,738
823,7	8,367
823,9	7,809
824,2	7,247
824,4	6,304
824,6	7,394
824,8	6,636
825	6,127
825,3	5,969
825,5	6,534
825,7	8,409
825,9	6,651
826,1	6,176
826,4	5,271
826,6	1,997
826,8	1,447
827	2,307
827,2	2,141
827,5	2,687
827,7	3,144
827,9	3,253
828,1	3,917
828,3	3,14
828,6	3,615
828,8	4,867
829	3,231
829,2	3,94
829,4	6,07
829,6	5,965
829,9	6,964
830,1	6,983
830,3	6,949
830,5	5,788
830,7	5,26
831	5,682
831,2	6,531
831,4	5,49
831,6	6,282
831,8	6,719
832,1	7,345
832,3	7,432
832,5	7,602
832,7	6,783
832,9	7,142
833,1	6,565
833,4	7,986
833,6	10,543
833,8	11,087
834	11,848
834,2	11,648
834,5	10,442
834,7	8,643
834,9	7,994
835,1	8,126
835,3	7,926
835,5	7,213
835,8	7,768
836	8,443
836,2	6,572
836,4	7,349
836,6	6,493
836,9	5,618
837,1	5,886
837,3	6,244
837,5	6,082
837,7	5,893
837,9	5,471
838,2	7,123
838,4	6,5
838,6	8,292
838,8	7,873
839	7,176
839,3	7,341
839,5	9,156
839,7	9,295
839,9	9,578
840,1	8,62
840,3	9,823
840,6	9,016
840,8	10,087
841	8,748
841,2	9,227
841,4	9,8
841,7	10,487
841,9	10,543
842,1	10,596
842,3	11,354
842,5	11,72
842,7	12,606
843	12,572
843,2	10,902
843,4	13,742
843,6	14,975
843,8	15,729
844	14,843
844,3	14,971
844,5	14,632
844,7	14,077
844,9	13,033
845,1	12,384
845,4	10,298
845,6	11
845,8	13,21
846	11,335
846,2	9,834
846,4	11,279
846,7	11,09
846,9	11,626
847,1	9,555
847,3	10,189
847,5	8,375
847,7	9,091
848	8,028
848,2	8,081
848,4	7,077
848,6	6,644
848,8	6,357
849	4,701
849,3	4,649
849,5	3,449
849,7	2,088
849,9	1,522
850,1	-1,789
850,3	-0,79
850,6	-1,725
850,8	-1,982
851	-2,917
851,2	-2,461
851,4	-2,645
851,6	-3,709
851,9	-2,57
852,1	-1,197
852,3	-2,762
852,5	-4,727
852,7	-3,498
852,9	-1,812
853,2	-2,31
853,4	-2,268
853,6	-2,412
853,8	-3,554
854	-5,15
854,2	-4,441
854,5	-4,727
854,7	-4,901
854,9	-4,524
855,1	-4,576
855,3	-4,976
855,5	-4,101
855,8	-3,992
856	-5,987
856,2	-7,122
856,4	-4,12
856,6	-3,143
856,8	-2,649
857,1	-1,846
857,3	-2,174
857,5	-1,955
857,7	0,225
857,9	0,907
858,1	3,242
858,4	2,356
858,6	2,39
858,8	1,092
859	2,201
859,2	0,809
859,4	0,866
859,7	-0,643
859,9	-2,234
860,1	-2,815
860,3	-2,906
860,5	-3
860,7	-3,456
860,9	-4,75
861,2	-2,423
861,4	-2,219
861,6	-1,789
861,8	0,161
862	1,375
862,2	0,964
862,5	1,714
862,7	2,846
862,9	3,461
863,1	2,107
863,3	3,178
863,5	3,989
863,8	1,307
864	2,589
864,2	3,838
864,4	2,646
864,6	1,684
864,8	0,293
865	1,643
865,3	1,895
865,5	1,786
865,7	1,76
865,9	3,004
866,1	1,56
866,3	1,812
866,6	3,555
866,8	2,876
867	1,733
867,2	1,794
867,4	2,797
867,6	3,302
867,8	1,258
868,1	1,379
868,3	1,266
868,5	-0,53
868,7	-1,917
868,9	-2,732
869,1	-2,163
869,3	-2,053
869,6	-3,162
869,8	-3,396
870	-4,942
870,2	-5,055
870,4	-5,61
870,6	-6,737
870,9	-8,178
871,1	-9,34
871,3	-10,139
871,5	-10,686
871,7	-9,178
871,9	-10,701
872,1	-10,973
872,4	-11,701
872,6	-12,236
872,8	-11,195
873	-11,557
873,2	-12,153
873,4	-9,958
873,6	-8,284
873,9	-8,514
874,1	-8,555
874,3	-9,536
874,5	-10,43
874,7	-11,014
874,9	-11,271
875,1	-11,931
875,4	-12,349
875,6	-13,481
875,8	-13,462
876	-11,339
876,2	-10,633
876,4	-11,87
876,6	-11,637
876,9	-11,203
877,1	-9,962
877,3	-10,701
877,5	-12,3
877,7	-10,102
877,9	-8,382
878,1	-9,362
878,4	-11,429
878,6	-10,188
878,8	-9,77
879	-10,72
879,2	-9,113
879,4	-10,381
879,6	-9,475
879,9	-10,267
880,1	-10,826
880,3	-12,508
880,5	-11,218
880,7	-10,878
880,9	-10,965
881,1	-9,543
881,3	-8,137
881,6	-8,914
881,8	-8,789
882	-7,665
882,2	-5,21
882,4	-6,213
882,6	-8,348
882,8	-8,28
883,1	-7,62
883,3	-7,91
883,5	-8,518
883,7	-7,537
883,9	-7,02
884,1	-5,795
884,3	-7,741
884,6	-9,189
884,8	-6,647
885	-5,606
885,2	-7,047
885,4	-6,828
885,6	-5,421
885,8	-5,81
886	-4,32
886,3	-5,01
886,5	-5,259
886,7	-6,145
886,9	-4,852
887,1	-5,655
887,3	-6,138
887,5	-4,859
887,8	-4,252
888	-5,96
888,2	-5,542
888,4	-5,5
888,6	-5,568
888,8	-6,519
889	-5,116
889,2	-6,175
889,5	-7,71
889,7	-6,783
889,9	-4,535
890,1	-5,267
890,3	-6,967
890,5	-6,511
890,7	-6,04
890,9	-5,874
891,2	-5,319
891,4	-7,235
891,6	-7,182
891,8	-5,421
892	-6,677
892,2	-6,602
892,4	-9,31
892,6	-10,369
892,9	-10,875
893,1	-10,166
893,3	-8,472
893,5	-8,71
893,7	-8,397
893,9	-7,993
894,1	-9
894,3	-9,596
894,6	-9,434
894,8	-8,676
895	-6,424
895,2	-5,855
895,4	-6,228
895,6	-7,839
895,8	-7,047
896	-5,059
896,3	-5,957
896,5	-7,435
896,7	-6,247
896,9	-5,659
897,1	-5,595
897,3	-6,341
897,5	-5,361
897,7	-5,029
898	-3,219
898,2	-4,399
898,4	-5,723
898,6	-4,923
898,8	-6,108
899	-3,931
899,2	-2,106
899,4	-0,59
899,6	-1,061
899,9	-2,321
900,1	-0,684
900,3	-0,601
900,5	-0,16
900,7	0,723
900,9	-1,544
901,1	-0,458
901,3	-2,479
901,6	-4,101
901,8	-4,64
902	-6,138
902,2	-6,289
902,4	-7,22
902,6	-7,952
902,8	-8,989
903	-10,486
903,2	-10,984
903,5	-11,84
903,7	-12,919
903,9	-13,1
904,1	-13,583
904,3	-13,115
904,5	-14,284
904,7	-12,866
904,9	-12,802
905,1	-12,813
905,4	-10,762
905,6	-10,66
905,8	-11,523
906	-12,3
906,2	-11,12
906,4	-11,191
906,6	-12,93
906,8	-11,218
907	-11,859
907,3	-12,444
907,5	-11,957
907,7	-13,488
907,9	-10,75
908,1	-11,007
908,3	-12,338
908,5	-10,588
908,7	-10,019
908,9	-10,637
909,2	-11,731
909,4	-9,106
909,6	-7,752
909,8	-9,566
910	-10,109
910,2	-8,774
910,4	-8,631
910,6	-8,457
910,8	-10,267
911,1	-7,982
911,3	-6,711
911,5	-6,851
911,7	-6,53
911,9	-7,231
912,1	-7,703
912,3	-9,468
912,5	-8,235
912,7	-9,506
912,9	-9,826
913,2	-8,853
913,4	-11,391
913,6	-9,321
913,8	-9,321
914	-6,707
914,2	-6,009
914,4	-6,511
914,6	-6,918
914,8	-5,927
915,1	-4,452
915,3	-3,969
915,5	-2,272
915,7	-1,495
915,9	-2,774
916,1	-3,479
916,3	-3,219
916,5	-1,729
916,7	-1,322
916,9	-0,277
917,2	-0,831
917,4	1,13
917,6	-1,416
917,8	-3,019
918	-4,708
918,2	-4,301
918,4	-5,817
918,6	-5,176
918,8	-3,253
919	-4,712
919,2	-3,139
919,5	-1,623
919,7	-3,524
919,9	-3,207
920,1	-4,946
920,3	-5,221
920,5	-6,115
920,7	-5,96
920,9	-7,428
921,1	-6,884
921,3	-8,186
921,6	-10,056
921,8	-10,946
922	-11,738
922,2	-13,579
922,4	-13,315
922,6	-14,039
922,8	-12,451
923	-12,945
923,2	-14,001
923,4	-15,736
923,6	-15,234
923,9	-15,676
924,1	-15,94
924,3	-16,992
924,5	-14,469
924,7	-15,023
924,9	-13,601
925,1	-13,862
925,3	-13,945
925,5	-13,394
925,7	-15,042
925,9	-16,053
926,2	-14,82
926,4	-15,37
926,6	-14,733
926,8	-15,638
927	-16,513
927,2	-15,925
927,4	-15,589
927,6	-16,272
927,8	-14,552
928	-15,431
928,2	-15,762
928,5	-15,419
928,7	-13,639
928,9	-13,096
929,1	-10,856
929,3	-10,626
929,5	-9,947
929,7	-11,003
929,9	-10,034
930,1	-11,01
930,3	-11,584
930,5	-9,773
930,8	-7,891
931	-7,759
931,2	-8,072
931,4	-9,313
931,6	-8,627
931,8	-8,042
932	-8,567
932,2	-9,739
932,4	-10,984
932,6	-11,784
932,8	-12,459
933	-14,929
933,3	-14,676
933,5	-14,239
933,7	-15,057
933,9	-14,993
934,1	-13,673
934,3	-13,477
934,5	-11,991
934,7	-12,183
934,9	-12,659
935,1	-12,964
935,3	-13,424
935,5	-16,076
935,7	-16,871
936	-17,218
936,2	-17,478
936,4	-17,177
936,6	-15,842
936,8	-16,094
937	-17,848
937,2	-19,368
937,4	-19,451
937,6	-20,02
937,8	-18,787
938	-22,178
938,2	-23,528
938,4	-21,061
938,7	-18,964
938,9	-18,538
939,1	-18,572
939,3	-16,72
939,5	-14,963
939,7	-14,627
939,9	-16,011
940,1	-15,827
940,3	-16,377
940,5	-17,297
940,7	-18,074
940,9	-18,078
941,1	-17,942
941,4	-18,689
941,6	-17,803
941,8	-18,817
942	-17,222
942,2	-17,192
942,4	-17,32
942,6	-14,111
942,8	-14,288
943	-14,827
943,2	-14,243
943,4	-13,658
943,6	-13,239
943,8	-13,809
944	-14,031
944,3	-14,695
944,5	-12,772
944,7	-10,995
944,9	-13,021
945,1	-11,991
945,3	-10,652
945,5	-9,313
945,7	-9,155
945,9	-9,668
946,1	-8,8
946,3	-8,714
946,5	-8,499
946,7	-8,057
946,9	-7,269
947,1	-7,82
947,4	-8,314
947,6	-9,653
947,8	-9,155
948	-9,449
948,2	-7,918
948,4	-8,748
948,6	-8,31
948,8	-7,665
949	-9,178
949,2	-8,838
949,4	-9,294
949,6	-10,384
949,8	-10,641
950	-11,116
950,2	-9,03
950,5	-8,031
950,7	-8,065
950,9	-7,503
951,1	-10,592
951,3	-9,2
951,5	-10,377
951,7	-12,862
951,9	-13,828
952,1	-14,574
952,3	-14,114
952,5	-14,624
952,7	-13,76
952,9	-13,262
953,1	-14,235
953,3	-15,174
953,5	-15,125
953,8	-14,959
954	-12,508
954,2	-13,526
954,4	-13,194
954,6	-14,774
954,8	-14,774
955	-15,314
955,2	-14,722
955,4	-15,514
955,6	-16,366
955,8	-14,375
956	-14,212
956,2	-13,292
956,4	-12,444
956,6	-14,903
956,8	-14,974
957	-14,94
957,2	-14,71
957,5	-13,654
957,7	-15,053
957,9	-15,483
958,1	-14,258
958,3	-14,673
958,5	-15,785
958,7	-16,792
958,9	-17,169
959,1	-16,954
959,3	-17,445
959,5	-17,69
959,7	-17,705
959,9	-17,592
960,1	-17,784
960,3	-18,097
960,5	-15,378
960,7	-15,084
960,9	-13,3
961,1	-13,311
961,4	-12,832
961,6	-15,276
961,8	-15,838
962	-15,834
962,2	-15,351
962,4	-16,668
962,6	-16,83
962,8	-18,787
963	-19,153
963,2	-20,126
963,4	-20,134
963,6	-21,944
963,8	-22,83
964	-23,95
964,2	-25,244
964,4	-23,698
964,6	-22,958
964,8	-21,891
965	-21,45
965,2	-22,004
965,5	-22,517
965,7	-21,831
965,9	-20,794
966,1	-21,718
966,3	-19,364
966,5	-17,033
966,7	-18,768
966,9	-18,218
967,1	-19,817
967,3	-21,721
967,5	-20,515
967,7	-21,763
967,9	-20,349
968,1	-18,414
968,3	-16,502
968,5	-18,263
968,7	-15,989
968,9	-15,314
969,1	-14,216
969,3	-11,561
969,5	-11,21
969,7	-10,415
969,9	-8,442
970,2	-7,337
970,4	-6,734
970,6	-6,685
970,8	-8,163
971	-7,05
971,2	-7,288
971,4	-7,062
971,6	-5,206
971,8	-4,878
972	-5,896
972,2	-4,701
972,4	-4,369
972,6	-7,171
972,8	-8,536
973	-7,058
973,2	-8,476
973,4	-9,155
973,6	-8,589
973,8	-9,128
974	-8,993
974,2	-9,483
974,4	-11,916
974,6	-13,251
974,8	-12,063
975	-12,123
975,2	-13,402
975,5	-13,534
975,7	-13,775
975,9	-12,643
976,1	-13,138
976,3	-14,525
976,5	-13,258
976,7	-13,089
976,9	-11,848
977,1	-12,613
977,3	-13,756
977,5	-14,525
977,7	-14,688
977,9	-14,227
978,1	-13,805
978,3	-12,542
978,5	-13,899
978,7	-13,13
978,9	-11,833
979,1	-12,557
979,3	-12,214
979,5	-12,293
979,7	-12,447
979,9	-12,447
980,1	-13,239
980,3	-13,017
980,5	-13,107
980,7	-11,667
980,9	-10,271
981,1	-11,689
981,3	-11,542
981,5	-11,312
981,7	-11,795
981,9	-13,126
982,2	-12,764
982,4	-13,07
982,6	-10,943
982,8	-13,07
983	-13,303
983,2	-13,138
983,4	-12,591
983,6	-12,704
983,8	-10,354
984	-10,283
984,2	-9,547
984,4	-9,898
984,6	-11,938
984,8	-11,644
985	-10,09
985,2	-9,728
985,4	-10,418
985,6	-12,757
985,8	-12,293
986	-9,37
986,2	-7,884
986,4	-8,653
986,6	-6,575
986,8	-7,084
987	-5,783
987,2	-6,688
987,4	-7,424
987,6	-7,228
987,8	-7,171
988	-6,455
988,2	-7,001
988,4	-8,465
988,6	-8,182
988,8	-11,041
989	-9,095
989,2	-9,641
989,4	-9,004
989,6	-8,193
989,8	-8,287
990	-8,393
990,2	-8,849
990,4	-11,052
990,6	-10,23
990,8	-8,431
991	-8,144
991,3	-8,857
991,5	-8,815
991,7	-8,857
991,9	-8,389
992,1	-8,966
992,3	-9,234
992,5	-9,54
992,7	-8,533
992,9	-9,826
993,1	-9,242
993,3	-10,558
993,5	-11,999
993,7	-10,807
993,9	-11,059
994,1	-11,418
994,3	-10,422
994,5	-10,086
994,7	-8,985
994,9	-8,951
995,1	-8,182
995,3	-8,446
995,5	-8,099
995,7	-8,736
995,9	-7,824
996,1	-8,295
996,3	-10,079
996,5	-9,491
996,7	-10,358
996,9	-11,191
997,1	-13,213
997,3	-14,744
997,5	-15,695
997,7	-15,634
997,9	-15,449
998,1	-12,451
998,3	-12,655
998,5	-13,081
998,7	-13,601
998,9	-11,904
999,1	-12,489
999,3	-12,538
999,5	-13,251
999,7	-13,379
999,9	-14,869
1000,1	-16,162
1000,3	-16,275
1000,5	-18,233
1000,7	-18,708
1000,9	-18,534
1001,1	-18,704
1001,3	-17,331
1001,5	-18,32
1001,7	-18,003
1001,9	-18,761
1002,1	-19,575
1002,3	-18,749
1002,5	-19,349
1002,7	-19,855
1002,9	-19,832
1003,1	-19,677
1003,3	-18,817
1003,5	-16,886
1003,7	-17,652
1003,9	-16,803
1004,1	-16,754
1004,3	-17,222
1004,5	-15,789
1004,7	-15,57
1004,9	-16,445
1005,1	-17,603
1005,3	-17,399
1005,5	-18,018
1005,7	-16,494
1005,9	-16,932
1006,1	-14,914
1006,3	-14,322
1006,5	-14,548
1006,7	-13,156
1006,9	-12,161
1007,1	-12,847
1007,3	-13,077
1007,5	-13,205
1007,7	-13,077
1007,9	-13,718
1008,1	-12,994
1008,3	-13,715
1008,5	-13,145
1008,7	-10,486
1008,9	-10,12
1009,1	-8,487
1009,3	-9,792
1009,5	-9,902
1009,7	-11,169
1009,9	-10,452
1010,1	-12,44
1010,3	-10,464
1010,5	-11,916
1010,7	-13,496
1010,9	-15,208
1011,1	-14,869
1011,3	-15,174
1011,5	-15,423
1011,7	-15,363
1011,9	-16,592
1012,1	-14,269
1012,3	-14,552
1012,5	-13,835
1012,7	-13,409
1012,9	-13,368
1013,1	-14,299
1013,3	-14,261
1013,5	-13,583
1013,7	-14,107
1013,9	-15,148
1014,1	-14,51
1014,3	-15,091
1014,5	-14,895
1014,7	-15,333
1014,9	-17,637
1015,1	-16,573
1015,3	-18,135
1015,5	-18,259
1015,7	-17,776
1015,9	-16,683
1016,1	-16,969
1016,3	-15,17
1016,5	-18,097
1016,7	-17,075
1016,9	-16,947
1017,1	-17,267
1017,3	-18,006
1017,5	-17,233
1017,7	-17,214
1017,9	-16,72
1018,1	-15,959
1018,3	-17,626
1018,5	-18,806
1018,7	-18,863
1018,9	-18,387
1019,1	-20,224
1019,2	-21,125
1019,4	-21,495
1019,6	-22,144
1019,8	-22,438
1020	-21,156
1020,2	-21,638
1020,4	-19,221
1020,6	-19,036
1020,8	-20,032
1021	-18,821
1021,2	-19,541
1021,4	-18,64
1021,6	-16,426
1021,8	-16,068
1022	-16,943
1022,2	-16,223
1022,4	-15,917
1022,6	-15,815
1022,8	-16,298
1023	-16,686
1023,2	-15,012
1023,4	-14,657
1023,6	-16,204
1023,8	-12,447
1024	-12,791
1024,2	-14,484
1024,4	-13,345
1024,6	-12,983
1024,8	-14,789
1025	-15,268
1025,2	-14,129
1025,4	-11,346
1025,6	-11,233
1025,8	-11,018
1026	-10,912
1026,2	-10,762
1026,4	-10,713
1026,6	-12,93
1026,8	-12,5
1027	-12,187
1027,2	-11,188
1027,4	-11,648
1027,6	-10,558
1027,8	-12,866
1028	-13,247
1028,1	-12,259
1028,3	-13,439
1028,5	-14,424
1028,7	-14,778
1028,9	-15,83
1029,1	-15,725
1029,3	-16,377
1029,5	-16,317
1029,7	-15,853
1029,9	-18,716
1030,1	-16,162
1030,3	-15,536
1030,5	-14,97
1030,7	-14,329
1030,9	-12,165
1031,1	-12,006
1031,3	-12,783
1031,5	-12,945
1031,7	-12,598
1031,9	-12,591
1032,1	-12,489
1032,3	-13,624
1032,5	-14,005
1032,7	-15,548
1032,9	-16,573
1033,1	-16,498
1033,3	-16,686
1033,5	-17,399
1033,7	-19,432
1033,9	-18,78
1034,1	-18,814
1034,3	-17,546
1034,4	-16,917
1034,6	-16,769
1034,8	-15,069
1035	-14,612
1035,2	-14,786
1035,4	-13,903
1035,6	-14,356
1035,8	-13,575
1036	-14,601
1036,2	-17,784
1036,4	-17,709
1036,6	-18,844
1036,8	-20,771
1037	-20,726
1037,2	-22,027
1037,4	-22,197
1037,6	-23,928
1037,8	-23,124
1038	-23,354
1038,2	-23,75
1038,4	-23,984
1038,6	-22,261
1038,8	-20,088
1039	-18,58
1039,2	-19,534
1039,4	-20,854
1039,5	-19,108
1039,7	-18,576
1039,9	-16,988
1040,1	-17,505
1040,3	-18,553
1040,5	-17,12
1040,7	-18,369
1040,9	-19,255
1041,1	-20,729
1041,3	-20,745
1041,5	-22,246
1041,7	-21,122
1041,9	-21,488
1042,1	-20,986
1042,3	-19,907
1042,5	-19,422
1042,7	-19,378
1042,9	-17,987
1043,1	-19,008
1043,3	-17,856
1043,5	-16,831
1043,7	-15,969
1043,8	-17,197
1044	-16,624
1044,2	-16,141
1044,4	-14,622
1044,6	-16,161
1044,8	-17,352
1045	-19,281
1045,2	-17,696
