Data from mesure_FLMT021711__10__32.txt Node

Date: Mon Nov 04 11:51:51 CET 2024
User: jordan.swietlicki
Spectrometer: FLMT02171
Trigger mode: 0
Integration Time (sec): 1,000000E-1
Scans to average: 15
Electric dark correction enabled: true
Nonlinearity correction enabled: false
Boxcar width: 15
XAxis mode: Wavelengths
Number of Pixels in Spectrum: 3648
>>>>>Begin Spectral Data<<<<<
194,7	-41,125
194,9	-39,039
195,2	-35,373
195,5	-34,315
195,7	-30,187
196	-29,443
196,2	-28,092
196,5	-29,668
196,8	-28,615
197	-26,832
197,3	-27,12
197,6	-24,342
197,8	-24,723
198,1	-23,587
198,4	-22,14
198,6	-21,099
198,9	-17,403
199,2	-12,666
199,4	-8,654
199,7	-2,393
200	-3,113
200,2	-4,505
200,5	-4,588
200,7	-4,844
201	-4,034
201,3	-4,233
201,5	-3,532
201,8	-4,071
202,1	-3,079
202,3	-3,302
202,6	-2,374
202,9	-4,245
203,1	-3,321
203,4	-4,513
203,7	-5,056
203,9	-6,855
204,2	-6,598
204,5	-6,164
204,7	-4,271
205	-3,864
205,2	-4,003
205,5	-2,114
205,8	-3,215
206	0,47
206,3	0,56
206,6	1,665
206,8	1,522
207,1	2,129
207,4	2,634
207,6	5,599
207,9	6,489
208,2	7,194
208,4	7,726
208,7	7,639
208,9	9,155
209,2	9,08
209,5	9,087
209,7	10,181
210	10,981
210,3	11,271
210,5	13,093
210,8	12,693
211,1	13,704
211,3	13,556
211,6	13,315
211,9	14,062
212,1	14,043
212,4	14,605
212,6	14,556
212,9	14,198
213,2	12,527
213,4	13,032
213,7	13,255
214	14,541
214,2	11,724
214,5	11,81
214,8	11,158
215	11,38
215,3	13,934
215,5	15,186
215,8	13,353
216,1	13,108
216,3	14,703
216,6	14,741
216,9	15,22
217,1	15,333
217,4	15,25
217,7	15,619
217,9	13,236
218,2	12,659
218,5	12,225
218,7	9,691
219	9,955
219,2	11,505
219,5	11,837
219,8	12,485
220	12,602
220,3	14,473
220,6	14,752
220,8	13,372
221,1	14,194
221,4	14,605
221,6	14,586
221,9	14,88
222,1	13,639
222,4	13,602
222,7	15,865
222,9	13,228
223,2	12,391
223,5	10,147
223,7	11,377
224	10,928
224,2	9,77
224,5	9,468
224,8	9,05
225	8,725
225,3	9,291
225,6	8,831
225,8	10,302
226,1	12,406
226,4	11,192
226,6	10,366
226,9	12,357
227,1	12,61
227,4	11,663
227,7	11,098
227,9	11,045
228,2	11,282
228,5	9,6
228,7	8,243
229	8,688
229,3	9,385
229,5	12,791
229,8	11,957
230	11,316
230,3	9,845
230,6	10,66
230,8	8,574
231,1	10,573
231,4	10,064
231,6	14,371
231,9	12,689
232,1	13,67
232,4	13,259
232,7	13,409
232,9	13,338
233,2	12,154
233,5	10,864
233,7	11,592
234	9,985
234,2	7,918
234,5	8,808
234,8	10,773
235	10,008
235,3	9,544
235,6	9,389
235,8	9,061
236,1	9,63
236,4	9,257
236,6	10,445
236,9	11,26
237,1	12,508
237,4	11,365
237,7	6,53
237,9	5,734
238,2	3,89
238,5	6,07
238,7	5,569
239	6,387
239,2	4,901
239,5	6,689
239,8	3,581
240	3,008
240,3	4,86
240,6	5,218
240,8	5,078
241,1	5,512
241,3	5,542
241,6	5,354
241,9	4,117
242,1	5,437
242,4	7,088
242,7	7,424
242,9	7,258
243,2	6,632
243,4	7,522
243,7	7,394
244	6,195
244,2	7,175
244,5	7,401
244,8	7,658
245	8,299
245,3	9,193
245,5	8,488
245,8	10,464
246,1	10,324
246,3	9,815
246,6	9,125
246,9	10,309
247,1	10,011
247,4	12,014
247,6	12,267
247,9	12,048
248,2	11,927
248,4	9,035
248,7	9,2
248,9	8,823
249,2	8,684
249,5	9,498
249,7	9,8
250	9,068
250,3	7,945
250,5	7,96
250,8	8,691
251	6,87
251,3	8,405
251,6	9,71
251,8	9,898
252,1	10,826
252,4	7,466
252,6	6,994
252,9	6,142
253,1	5,463
253,4	3,664
253,7	4,754
253,9	6,229
254,2	7,322
254,4	8,235
254,7	8,876
255	9,412
255,2	10,03
255,5	9,359
255,8	9,174
256	9,053
256,3	9,393
256,5	9,695
256,8	9,133
257,1	9,167
257,3	8,435
257,6	8,974
257,8	9,596
258,1	11,403
258,4	12,395
258,6	11,671
258,9	11,916
259,2	11,328
259,4	10,977
259,7	7,903
259,9	6,851
260,2	7,247
260,5	9,483
260,7	9,212
261	8,88
261,2	8,39
261,5	8,559
261,8	7,76
262	8,356
262,3	8,133
262,6	8,846
262,8	7,681
263,1	6,195
263,3	4,769
263,6	4,55
263,9	3,687
264,1	3,739
264,4	4,633
264,6	5,282
264,9	5,346
265,2	6,089
265,4	5,222
265,7	6,017
266	4,267
266,2	4,961
266,5	4,626
266,7	3,181
267	1,148
267,3	1,265
267,5	1,695
267,8	3,596
268	4,501
268,3	4,301
268,6	1,658
268,8	3,245
269,1	1,914
269,3	0,952
269,6	0,579
269,9	0,828
270,1	-1,733
270,4	-0,892
270,6	-0,7
270,9	-0,436
271,2	-1,213
271,4	-2,985
271,7	-4,701
272	-5,086
272,2	-3,909
272,5	-5,014
272,7	-4,09
273	-3,487
273,3	-3,581
273,5	-1,239
273,8	-3,264
274	-1,609
274,3	-3,045
274,6	-3,404
274,8	-0,718
275,1	-0,289
275,3	1,522
275,6	1,676
275,9	0,228
276,1	0,718
276,4	0,979
276,6	3,193
276,9	3,423
277,2	5,742
277,4	6,161
277,7	8,461
277,9	8,114
278,2	9,299
278,5	10,487
278,7	10,932
279	9,838
279,2	9,627
279,5	10,898
279,8	12,995
280	14,171
280,3	11,727
280,5	11,067
280,8	11,222
281,1	10,517
281,3	11,727
281,6	10,362
281,9	12,104
282,1	12,029
282,4	11,588
282,6	12,55
282,9	12,18
283,2	11,509
283,4	10,992
283,7	9,381
283,9	10,607
284,2	10,475
284,5	9,238
284,7	7,933
285	6,338
285,2	4,109
285,5	5,889
285,8	4,056
286	8,721
286,3	9,374
286,5	7,552
286,8	7,096
287,1	8,967
287,3	9,446
287,6	8,816
287,8	8,684
288,1	6,87
288,4	7,65
288,6	10,373
288,9	9,133
289,1	9,864
289,4	6,519
289,7	8,099
289,9	6,5
290,2	7,266
290,4	8,906
290,7	6,651
290,9	4,678
291,2	5,772
291,5	7,805
291,7	9,464
292	10,004
292,2	9,495
292,5	11,116
292,8	12,93
293	12,47
293,3	14,107
293,5	15,416
293,8	15,77
294,1	12,685
294,3	11,03
294,6	11,15
294,8	11,478
295,1	11,407
295,4	12,161
295,6	12,689
295,9	12,674
296,1	12,252
296,4	12,244
296,7	8,933
296,9	9,299
297,2	6,466
297,4	7,948
297,7	5,976
298	7,153
298,2	6,579
298,5	6,798
298,7	8,725
299	10,294
299,3	9,608
299,5	6,123
299,8	6,191
300	5,489
300,3	5,384
300,5	4,98
300,8	2,966
301,1	4,852
301,3	4,494
301,6	1,556
301,8	-0,549
302,1	-1,235
302,4	-0,609
302,6	-0,847
302,9	-1,001
303,1	-2,906
303,4	-2,589
303,7	-1,13
303,9	-2,748
304,2	-2,525
304,4	-2,378
304,7	-0,19
304,9	-1,609
305,2	1,925
305,5	1,797
305,7	1,624
306	1,835
306,2	3,03
306,5	3,566
306,8	2,321
307	0,745
307,3	2,121
307,5	3,343
307,8	1,197
308,1	-0,541
308,3	0,021
308,6	-1,733
308,8	0,051
309,1	0,568
309,3	2,604
309,6	2,514
309,9	5,618
310,1	5,218
310,4	6,247
310,6	6,945
310,9	6,025
311,2	6,998
311,4	7,013
311,7	6,836
311,9	7,692
312,2	9,2
312,5	8,952
312,7	8,94
313	8,378
313,2	7,813
313,5	7,447
313,7	7,288
314	6,191
314,3	4,154
314,5	3,687
314,8	5,18
315	6,195
315,3	4,569
315,6	3,136
315,8	2,895
316,1	3,404
316,3	2,981
316,6	4,324
316,8	3,46
317,1	1,661
317,4	-0,99
317,6	-0,896
317,9	-2,721
318,1	-2,506
318,4	-2,34
318,6	-2,563
318,9	-2,789
319,2	-3,566
319,4	-4,052
319,7	-4,637
319,9	-4,037
320,2	-3,834
320,5	-3,966
320,7	-4,694
321	-4,29
321,2	-5,014
321,5	-3,924
321,7	-3,23
322	-1,842
322,3	-2,152
322,5	-2,649
322,8	-4,652
323	-5,139
323,3	-3,366
323,5	-1,929
323,8	-0,209
324,1	0,632
324,3	1,148
324,6	1,469
324,8	2,45
325,1	1,175
325,4	2,566
325,6	3,83
325,9	3,932
326,1	4,958
326,4	3,804
326,6	2,872
326,9	4,12
327,2	4,309
327,4	4,456
327,7	4,237
327,9	4,882
328,2	4,55
328,4	4,494
328,7	7,153
329	7,854
329,2	7,907
329,5	7,262
329,7	7,19
330	7,228
330,2	9,314
330,5	10,577
330,8	10,596
331	11,901
331,3	10,26
331,5	10,377
331,8	9,182
332	9,117
332,3	8,024
332,6	7,409
332,8	6,572
333,1	8,948
333,3	9,404
333,6	10,283
333,8	10,852
334,1	9,891
334,4	9,612
334,6	9,249
334,9	8,265
335,1	8,574
335,4	6,806
335,6	7,703
335,9	5,682
336,2	4,724
336,4	4,931
336,7	2,235
336,9	3,11
337,2	2,966
337,4	2,857
337,7	2,472
338	0,47
338,2	-0,662
338,5	-2,763
338,7	-1,133
339	-0,854
339,2	1,156
339,5	0,247
339,8	0,503
340	1,254
340,3	1,386
340,5	2,148
340,8	5,12
341	4,497
341,3	2,072
341,6	0,903
341,8	1,375
342,1	-0,296
342,3	-0,27
342,6	1,42
342,8	2,329
343,1	2,088
343,4	2,608
343,6	0,485
343,9	2,404
344,1	2,981
344,4	2,925
344,6	2,125
344,9	0,345
345,1	0,281
345,4	-0,043
345,7	0,515
345,9	1,284
346,2	0,711
346,4	0,647
346,7	-1,405
346,9	-1,235
347,2	-3,92
347,5	-3,204
347,7	-2,955
348	-5,289
348,2	-4,018
348,5	-4,524
348,7	-2,785
349	-2,627
349,2	-0,311
349,5	-0,941
349,8	-1,495
350	-0,477
350,3	-0,375
350,5	-0,341
350,8	-1,005
351	-1,397
351,3	-0,085
351,6	0,092
351,8	-1,054
352,1	-1,02
352,3	-0,553
352,6	0,862
352,8	1,016
353,1	1,303
353,3	1,918
353,6	0,73
353,9	0,779
354,1	0,794
354,4	1,45
354,6	3,694
354,9	1,997
355,1	3,785
355,4	3,713
355,6	4,007
355,9	4,829
356,2	4,897
356,4	5,599
356,7	0,918
356,9	1,284
357,2	0,239
357,4	1,228
357,7	0,749
358	3,611
358,2	3,54
358,5	3,019
358,7	2,861
359	4,392
359,2	4,347
359,5	4,765
359,7	6,391
360	6,251
360,3	7,888
360,5	7,036
360,8	7,941
361	9,299
361,3	8,069
361,5	9,163
361,8	9,876
362	11,18
362,3	11,214
362,6	10,426
362,8	12,663
363,1	12,47
363,3	13,149
363,6	13,934
363,8	15,454
364,1	13,738
364,3	13,862
364,6	14,899
364,8	15,035
365,1	14,556
365,4	16,725
365,6	16,879
365,9	15,08
366,1	15,619
366,4	15,389
366,6	16,43
366,9	17,562
367,1	17,599
367,4	19,836
367,7	20,138
367,9	20,571
368,2	19,553
368,4	18,252
368,7	19,202
368,9	19,493
369,2	18,433
369,4	18,637
369,7	19,251
370	18,259
370,2	18,131
370,5	18,127
370,7	16,906
371	18,399
371,2	18,705
371,5	19,527
371,7	19,844
372	21,141
372,2	20,685
372,5	20,847
372,8	20,058
373	19,368
373,3	16,268
373,5	17,682
373,8	17,181
374	16,921
374,3	18,214
374,5	19,093
374,8	18,897
375	18,422
375,3	16,913
375,6	15,963
375,8	16,958
376,1	17,946
376,3	20,311
376,6	19,64
376,8	17,724
377,1	21,194
377,3	20,04
377,6	18,776
377,8	19,617
378,1	21,054
378,4	21,993
378,6	22,152
378,9	20,262
379,1	20,39
379,4	19,463
379,6	18,622
379,9	17,581
380,1	17,897
380,4	18,474
380,6	19,21
380,9	20,074
381,2	20,986
381,4	21,213
381,7	22,819
381,9	24,286
382,2	24,226
382,4	22,514
382,7	20,609
382,9	21,371
383,2	22,167
383,4	22,766
383,7	23,985
383,9	22,069
384,2	21,054
384,5	22,45
384,7	23,095
385	21,669
385,2	23,871
385,5	23,939
385,7	23,359
386	22,921
386,2	22,253
386,5	20,522
386,7	21,59
387	20,085
387,2	20,39
387,5	22,363
387,8	23,313
388	24,301
388,3	24,218
388,5	25,289
388,8	26,953
389	27,481
389,3	26,059
389,5	24,712
389,8	25,821
390	24,052
390,3	25,052
390,5	24,973
390,8	27,092
391,1	27,036
391,3	26,862
391,6	25,972
391,8	27,153
392,1	27,33
392,3	27,937
392,6	28,797
392,8	29,514
393,1	32,387
393,3	35,174
393,6	36,038
393,8	37,128
394,1	40,138
394,4	43,159
394,6	44,592
394,9	46,881
395,1	47,545
395,4	45,372
395,6	46,828
395,9	45,953
396,1	46,1
396,4	45,961
396,6	46,3
396,9	45,934
397,1	46,379
397,4	48,001
397,6	46,21
397,9	47,881
398,2	49,242
398,4	52,972
398,7	52,893
398,9	53,364
399,2	54,982
399,4	54,956
399,7	54,696
399,9	54,899
400,2	53,915
400,4	54,333
400,7	55,725
400,9	53,093
401,2	52,161
401,4	52,734
401,7	51,335
401,9	49,408
402,2	46,987
402,5	45,9
402,7	43,234
403	43,566
403,2	45,406
403,5	44,973
403,7	45,791
404	46,659
404,2	46,123
404,5	46,9
404,7	48,974
405	50,566
405,2	51,463
405,5	52,666
405,7	54,379
406	54,356
406,2	53,832
406,5	54,854
406,7	54,273
407	52,98
407,3	53,707
407,5	54,567
407,8	55,631
408	54,797
408,3	54,639
408,5	54,895
408,8	54,398
409	55,657
409,3	55,525
409,5	57,607
409,8	58,222
410	60,813
410,3	61,514
410,5	65,942
410,8	65,188
411	65,297
411,3	66,625
411,5	67,417
411,8	67,311
412	67,586
412,3	68,227
412,6	68,582
412,8	67,873
413,1	66,855
413,3	67,613
413,6	66,813
413,8	67,228
414,1	66,27
414,3	65,459
414,6	66,53
414,8	65,772
415,1	65,101
415,3	65,052
415,6	66,787
415,8	67,82
416,1	68,827
416,3	67,79
416,6	70,004
416,8	68,797
417,1	71,15
417,3	68,703
417,6	69,385
417,8	69,868
418,1	70,705
418,4	69,48
418,6	71,328
418,9	71,09
419,1	71,052
419,4	70,788
419,6	70,505
419,9	71,339
420,1	70,087
420,4	69,193
420,6	69,876
420,9	68,182
421,1	67,266
421,4	67,575
421,6	66,851
421,9	67,413
422,1	65,478
422,4	65,271
422,6	66,911
422,9	65,976
423,1	66,553
423,4	66,726
423,6	67,658
423,9	68,556
424,1	69,483
424,4	67,911
424,6	66,987
424,9	65,712
425,1	65,802
425,4	64,562
425,6	66,327
425,9	64,418
426,2	64,652
426,4	63,004
426,7	63,178
426,9	61,416
427,2	59,459
427,4	58,893
427,7	58,263
427,9	56,6
428,2	56,577
428,4	57,645
428,7	58,867
428,9	59,572
429,2	61,047
429,4	61,556
429,7	59,942
429,9	58,84
430,2	58,331
430,4	58,399
430,7	60,711
430,9	60,847
431,2	59,466
431,4	59,851
431,7	59,146
431,9	57,52
432,2	59,074
432,4	59,893
432,7	59,908
432,9	63,453
433,2	65,286
433,4	62,736
433,7	64,531
433,9	64,667
434,2	64,867
434,4	64,531
434,7	66,44
434,9	68,427
435,2	68,295
435,4	67,892
435,7	69,529
435,9	69,853
436,2	69,962
436,4	70,087
436,7	69,778
436,9	67,617
437,2	66,889
437,4	69,48
437,7	73,07
437,9	74,488
438,2	73,76
438,4	73,904
438,7	74,42
438,9	74,322
439,2	72,897
439,4	70,928
439,7	72,493
439,9	72,105
440,2	71,494
440,5	72,353
440,7	71,509
441	71,429
441,2	72,859
441,5	72,893
441,7	72,802
442	73,221
442,2	73,704
442,5	72,534
442,7	73,394
443	75,291
443,2	76,887
443,5	75,842
443,7	75,669
444	74,16
444,2	74,714
444,5	75,631
444,7	77,328
445	77,347
445,2	76,853
445,5	74,503
445,7	75,333
446	76,159
446,2	76,163
446,5	76,732
446,7	78,033
447	78,625
447,2	80,266
447,5	81,231
447,7	80,36
448	80,76
448,2	81,495
448,5	81,069
448,7	81,186
449	80,172
449,2	80,522
449,5	80,911
449,7	81,009
450	80,847
450,2	82,619
450,5	81,895
450,7	82,363
451	81,937
451,2	83,019
451,5	83,261
451,7	85,161
452	88,22
452,2	88,688
452,5	88,492
452,7	90,385
452,9	90,464
453,2	92,078
453,4	92,602
453,7	93,813
453,9	92,719
454,2	92,15
454,4	91,501
454,7	94,013
454,9	94,232
455,2	93,775
455,4	95,141
455,7	97,649
455,9	96,585
456,2	97,984
456,4	99,383
456,7	100,481
456,9	100,353
457,2	100,455
457,4	102,966
457,7	106,051
457,9	106,708
458,2	107,835
458,4	108,224
458,7	109,959
458,9	110,913
459,2	111,433
459,4	113,711
459,7	113,538
459,9	113,519
460,2	114,281
460,4	113,907
460,7	117,049
460,9	118,92
461,2	119,323
461,4	119,259
461,7	122,499
461,9	123,283
462,2	124,109
462,4	122,959
462,7	125,207
462,9	125,935
463,2	126,153
463,4	125,048
463,7	126,576
463,9	126,353
464,2	125,968
464,4	127,198
464,7	129,284
464,9	129,57
465,2	129,506
465,4	129,291
465,7	130,996
465,9	133,428
466,2	135,103
466,4	135,646
466,6	136,589
466,9	136,672
467,1	135,25
467,4	136,174
467,6	138,535
467,9	138,746
468,1	138,874
468,4	137,215
468,6	137,121
468,9	137,124
469,1	137,826
469,4	138,546
469,6	140,406
469,9	141,02
470,1	144,143
470,4	143,691
470,6	146,282
470,9	148,891
471,1	151,712
471,4	151,637
471,6	153,127
471,9	156,317
472,1	157,377
472,4	157,558
472,6	160,428
472,9	160,59
473,1	162,416
473,4	163,279
473,6	163,751
473,9	162,989
474,1	164,185
474,3	165,637
474,6	169,793
474,8	170,502
475,1	171,422
475,3	171,049
475,6	172,712
475,8	175,846
476,1	178,245
476,3	179,255
476,6	182,325
476,8	184,079
477,1	186,753
477,3	188,156
477,6	191,645
477,8	192,222
478,1	194,518
478,3	196,012
478,6	198,969
478,8	198,999
479,1	201,292
479,3	202,333
479,6	203,494
479,8	204,965
480,1	208,533
480,3	210,755
480,5	213,647
480,8	214,066
481	217,087
481,3	218,32
481,5	221,273
481,8	222,054
482	225,195
482,3	225,388
482,5	226,681
482,8	227,059
483	228,944
483,3	231,049
483,5	233,934
483,8	235,288
484	236,408
484,3	236,246
484,5	239,753
484,8	241,797
485	242,861
485,2	243,344
485,5	246,685
485,7	248,658
486	250,215
486,2	250,634
486,5	254,888
486,7	257,234
487	261,247
487,2	262,574
487,5	265,456
487,7	267,643
488	267,568
488,2	268,952
488,5	271,098
488,7	270,679
489	272,252
489,2	273,402
489,5	276,431
489,7	278,098
489,9	278,758
490,2	280,836
490,4	284,151
490,7	286,919
490,9	288,337
491,2	289,095
491,4	293,059
491,7	297,468
491,9	299,908
492,2	300,493
492,4	300,353
492,7	303,091
492,9	305,867
493,2	307,617
493,4	308,522
493,6	309,386
493,9	311,969
494,1	311,007
494,4	312,327
494,6	312,531
494,9	312,727
495,1	312,987
495,4	313,191
495,6	316,578
495,9	319,372
496,1	320,93
496,4	323,777
496,6	326,516
496,9	331,641
497,1	332,241
497,3	333,183
497,6	335,213
497,8	338,682
498,1	338,799
498,3	339,414
498,6	339,923
498,8	340,753
499,1	341,33
499,3	343,099
499,6	346,331
499,8	348,454
500,1	348,443
500,3	349,789
500,6	350,404
500,8	350,321
501	354,009
501,3	354,658
501,5	354,971
501,8	358,497
502	362,424
502,3	362,793
502,5	364,03
502,8	367,055
503	371,019
503,3	370,706
503,5	370,906
503,8	374,236
504	374,926
504,2	377,69
504,5	378,399
504,7	382,827
505	384,996
505,2	390,087
505,5	392,931
505,7	396,808
506	400,157
506,2	406,444
506,5	409,05
506,7	410,977
506,9	412,912
507,2	415,699
507,4	416,661
507,7	423,038
507,9	426,904
508,2	432,527
508,4	435,005
508,7	437,483
508,9	441,334
509,2	445,671
509,4	449,623
509,7	451,932
509,9	457,336
510,1	461,458
510,4	464,143
510,6	465,343
510,9	471,098
511,1	476,367
511,4	480,387
511,6	485,06
511,9	487,048
512,1	489,163
512,4	492,565
512,6	496,646
512,8	497,031
513,1	498,358
513,3	500,123
513,6	501,82
513,8	502,401
514,1	504,792
514,3	506,685
514,6	508,711
514,8	510,102
515,1	514,587
515,3	515,201
515,5	518,66
515,8	521,051
516	526,01
516,3	528,979
516,5	532,279
516,8	535,356
517	537,336
517,3	540,3
517,5	544,438
517,7	548,583
518	551,935
518,2	555,19
518,5	558,124
518,7	560,772
519	562,25
519,2	565,003
519,5	568,27
519,7	571,438
520	573,749
520,2	577,6
520,4	583,502
520,7	589,839
520,9	594,794
521,2	600,357
521,4	604,113
521,7	610,397
521,9	615,432
522,2	617,751
522,4	623,536
522,6	626,241
522,9	629,94
523,1	631,607
523,4	634,545
523,6	634,455
523,9	637,37
524,1	639,411
524,4	639,905
524,6	641,27
524,8	642,092
525,1	643,45
525,3	646,071
525,6	649,099
525,8	652,882
526,1	654,508
526,3	657,725
526,6	659,527
526,8	661,33
527	666,324
527,3	668,043
527,5	669,345
527,8	670,657
528	670,966
528,3	672,784
528,5	674,104
528,8	673,169
529	673,701
529,2	675,243
529,5	673,184
529,7	676,28
530	676,299
530,2	677,623
530,5	676,133
530,7	676,627
531	675,552
531,2	678,075
531,4	677,849
531,7	680,127
531,9	681,142
532,2	683,65
532,4	684,74
532,7	684,234
532,9	682,76
533,2	681,425
533,4	680,059
533,6	678,592
533,9	675,545
534,1	674,64
534,4	673,437
534,6	672,648
534,9	670,657
535,1	669,857
535,3	667,414
535,6	666,384
535,8	661,602
536,1	660,395
536,3	659,995
536,6	659,497
536,8	656,175
537,1	656,782
537,3	654,066
537,5	652,124
537,8	649,458
538	648,979
538,3	645,328
538,5	643,348
538,8	640,648
539	637,464
539,2	635,179
539,5	632,758
539,7	630,329
540	628,168
540,2	627,383
540,5	625,177
540,7	623,386
540,9	621,157
541,2	619,724
541,4	620,802
541,7	621,334
541,9	619,282
542,2	613,848
542,4	611,747
542,7	609,658
542,9	608,684
543,1	606,218
543,4	606,968
543,6	604,053
543,9	602,243
544,1	600,512
544,4	598,023
544,6	594,813
544,8	593,697
545,1	590,687
545,3	589,009
545,6	587,832
545,8	588,56
546,1	586,659
546,3	585,803
546,5	584,675
546,8	583,352
547	582,235
547,3	579,693
547,5	576,914
547,8	573,414
548	571,287
548,2	569,435
548,5	565,667
548,7	563,868
549	558,501
549,2	556,533
549,5	554,059
549,7	551,588
549,9	549,729
550,2	546,361
550,4	543,389
550,7	541,556
550,9	536,193
551,2	534,402
551,4	531,502
551,6	529,024
551,9	527,628
552,1	525,151
552,4	522,899
552,6	518,596
552,9	516,687
553,1	513,444
553,3	509,914
553,6	506,572
553,8	502,827
554,1	501,76
554,3	497,015
554,5	492,297
554,8	487,828
555	484,592
555,3	480,138
555,5	478,022
555,8	473,478
556	470,894
556,2	465,814
556,5	463,729
556,7	457,773
557	455,997
557,2	453,112
557,5	450,442
557,7	449,265
557,9	445,143
558,2	441,255
558,4	440,911
558,7	436,57
558,9	434,142
559,2	431,143
559,4	427,315
559,6	425,663
559,9	422,865
560,1	420,564
560,4	419,456
560,6	416,914
560,8	414,605
561,1	412,475
561,3	410,898
561,6	406,923
561,8	405,09
562,1	402,412
562,3	400,708
562,5	398,822
562,8	398,366
563	394,643
563,3	393,791
563,5	392,09
563,7	390,495
564	386,685
564,2	385,248
564,5	381,575
564,7	381,236
565	379,274
565,2	375,431
565,4	374,402
565,7	374,937
565,9	371,226
566,2	370,653
566,4	367,308
566,6	365,739
566,9	364,962
567,1	363,419
567,4	359,95
567,6	359,557
567,9	355,107
568,1	354,085
568,3	351,336
568,6	350,023
568,8	347,557
569,1	344,622
569,3	341,137
569,5	340,67
569,8	340,131
570	337,8
570,3	336,416
570,5	336,072
570,7	334,19
571	332,622
571,2	331,856
571,5	330,796
571,7	327,738
572	326,47
572,2	322,518
572,4	321,477
572,7	320,451
572,9	319,206
573,2	314,647
573,4	311,467
573,6	308,612
573,9	306,991
574,1	304,4
574,4	299,953
574,6	298,075
574,8	295,322
575,1	293,055
575,3	291,162
575,6	288,42
575,8	286,708
576	283,679
576,3	280,538
576,5	281,549
576,8	282,099
577	280,715
577,3	278,599
577,5	277,23
577,7	274,948
578	272,459
578,2	270,189
578,5	266,934
578,7	265,195
578,9	264,807
579,2	262,835
579,4	260,579
579,7	258,95
579,9	255,925
580,1	254,254
580,4	252,12
580,6	251,132
580,9	252,727
581,1	250,83
581,3	249,499
581,6	244,543
581,8	244,075
582,1	242,246
582,3	241,545
582,5	239,376
582,8	238,957
583	239,229
583,3	239,127
583,5	236,536
583,7	235,699
584	231,637
584,2	230,283
584,5	227,289
584,7	225,512
584,9	223,615
585,2	221,258
585,4	219,15
585,7	216,736
585,9	214,209
586,1	210,807
586,4	206,828
586,6	206,282
586,9	203,683
587,1	201,115
587,3	199,297
587,6	196,808
587,8	193,395
588,1	190,46
588,3	185,806
588,5	183,755
588,8	180,67
589	180,194
589,3	178,467
589,5	176,001
589,7	176,061
590	173,112
590,2	171,754
590,5	167,255
590,7	164,056
590,9	164,279
591,2	162,299
591,4	159,896
591,7	158,731
591,9	160,123
592,1	157,773
592,4	156,476
592,6	154,986
592,9	153,647
593,1	153,647
593,3	153,7
593,6	152,983
593,8	153,568
594,1	152,21
594,3	151,524
594,5	151,026
594,8	149,849
595	150,905
595,3	151,486
595,5	153,417
595,7	154,62
596	154,997
596,2	156,11
596,4	159,014
596,7	158,158
596,9	157,23
597,2	154,477
597,4	156,431
597,6	153,885
597,9	153,334
598,1	153,447
598,4	153,304
598,6	154,009
598,8	154,126
599,1	151,52
599,3	150,736
599,6	149,966
599,8	150,407
600	151,531
600,3	152,414
600,5	150,272
600,7	150,302
601	151,596
601,2	151,233
601,5	150,935
601,7	151,482
601,9	151,471
602,2	152,795
602,4	150,509
602,7	149,729
602,9	148,586
603,1	148,782
603,4	147,703
603,6	147,164
603,9	146,195
604,1	146,085
604,3	147,032
604,6	147,081
604,8	145,38
605	146,7
605,3	146,232
605,5	144,973
605,8	143,076
606	142,993
606,2	143,238
606,5	143,087
606,7	139,749
607	138,731
607,2	136,623
607,4	132,957
607,7	130,72
607,9	129,732
608,1	130,26
608,4	128,382
608,6	126,787
608,9	125,912
609,1	125,192
609,3	124,29
609,6	122,08
609,8	122,782
610,1	121,424
610,3	117,166
610,5	114,19
610,8	113,04
611	112,712
611,2	110,441
611,5	109,646
611,7	107,462
612	106,832
612,2	105,946
612,4	104,539
612,7	103,11
612,9	103,619
613,1	102,559
613,4	101,729
613,6	100,775
613,9	100,402
614,1	99,572
614,3	99,81
614,6	100,255
614,8	101,514
615	101,013
615,3	101,084
615,5	99,844
615,8	98,475
616	98,222
616,2	97,498
616,5	98,075
616,7	97,947
616,9	97,283
617,2	95,936
617,4	96,955
617,7	98,569
617,9	97,996
618,1	96,894
618,4	95,31
618,6	93,27
618,8	93,949
619,1	95,216
619,3	94,145
619,6	92,817
619,8	91,818
620	92,135
620,3	92,135
620,5	93,036
620,7	90,641
621	88,967
621,2	87,466
621,5	86,979
621,7	86,783
621,9	85,339
622,2	83,838
622,4	84,433
622,6	84,441
622,9	83,242
623,1	84,053
623,4	82,891
623,6	82,74
623,8	82,729
624,1	81,529
624,3	81,665
624,5	82,665
624,8	81,925
625	81,092
625,3	82,45
625,5	83,717
625,7	83,732
626	84,234
626,2	83,351
626,4	81,99
626,7	81,582
626,9	83,513
627,1	83,283
627,4	82,404
627,6	81,13
627,9	80,032
628,1	80,145
628,3	79,968
628,6	80,488
628,8	81,944
629	82,012
629,3	83,4
629,5	85,105
629,8	83,279
630	83,43
630,2	82,363
630,5	82,186
630,7	82,329
630,9	82,423
631,2	80,451
631,4	80,843
631,6	79,512
631,9	77,041
632,1	75,397
632,4	76,174
632,6	75,054
632,8	74,367
633,1	74,76
633,3	75,676
633,5	74,518
633,8	73,979
634	75,721
634,2	74,963
634,5	74,85
634,7	76,864
635	76,102
635,2	76,291
635,4	77,373
635,7	79,806
635,9	78,908
636,1	78,569
636,4	77,822
636,6	75,431
636,8	74,458
637,1	75,423
637,3	75,167
637,5	75,623
637,8	75,02
638	75,646
638,3	74,763
638,5	75,94
638,7	73,696
639	76,8
639,2	77,799
639,4	77,747
639,7	77,124
639,9	75,51
640,1	78,833
640,4	80,198
640,6	78,309
640,9	79,466
641,1	80,538
641,3	78,92
641,6	78,938
641,8	78,931
642	77,015
642,3	76,351
642,5	76,065
642,7	73,858
643	73,617
643,2	72,38
643,4	71,463
643,7	71,509
643,9	71,739
644,1	70,95
644,4	71,535
644,6	70,475
644,9	70,347
645,1	70,585
645,3	70,038
645,6	69,913
645,8	67,322
646	70,226
646,3	67,156
646,5	66,561
646,7	68,16
647	67,481
647,2	67,922
647,4	63,913
647,7	61,039
647,9	63,185
648,1	63,245
648,4	61,284
648,6	61,443
648,9	61,096
649,1	62,442
649,3	63,89
649,6	63,69
649,8	63,773
650	64,494
650,3	62,344
650,5	64,079
650,7	63,102
651	61,888
651,2	63,242
651,4	62,28
651,7	60,549
651,9	60,466
652,1	60,504
652,4	59,64
652,6	59,945
652,8	60,715
653,1	60,881
653,3	59,7
653,5	59,421
653,8	59,41
654	59,432
654,3	58,938
654,5	59,278
654,7	58,542
655	57,913
655,2	56,227
655,4	54,036
655,7	55,537
655,9	55,997
656,1	57,49
656,4	55,246
656,6	53,323
656,8	59,323
657,1	61,039
657,3	60,379
657,5	59,783
657,8	60,157
658	61,25
658,2	62,567
658,5	60,967
658,7	61,096
658,9	61,529
659,2	61,428
659,4	60,096
659,6	60,447
659,9	60,737
660,1	58,882
660,3	59,421
660,6	57,958
660,8	58,384
661	57,86
661,3	56,574
661,5	55,944
661,8	54,722
662	54,273
662,2	55,193
662,5	54,02
662,7	54,824
662,9	52,734
663,2	52,746
663,4	48,812
663,6	48,454
663,9	50,166
664,1	43,521
664,3	41,812
664,6	42,683
664,8	42,683
665	41,929
665,3	42,25
665,5	41,126
665,7	42,993
666	43,871
666,2	42,521
666,4	42,849
666,7	42,344
666,9	41,45
667,1	40,922
667,4	42,389
667,6	41,654
667,8	41,827
668,1	41,888
668,3	42,212
668,5	42,461
668,8	42,683
669	43,042
669,2	45,927
669,5	46,364
669,7	48,156
669,9	46,904
670,2	47,496
670,4	46,591
670,6	47,918
670,9	48,691
671,1	46,112
671,3	47,545
671,6	46,383
671,8	46,907
672	48,126
672,3	49,17
672,5	49,476
672,7	48,759
673	49,302
673,2	47,865
673,4	50,63
673,7	50,698
673,9	51,539
674,1	51,724
674,4	50,8
674,6	49,695
674,8	49,37
675,1	49,563
675,3	48,639
675,5	48,831
675,8	47,752
676	48,657
676,2	50,317
676,5	48,333
676,7	49,257
676,9	48,009
677,2	48,194
677,4	47,586
677,6	47,865
677,9	47,454
678,1	46,847
678,3	48,657
678,5	47,537
678,8	47,205
679	46,519
679,2	46,195
679,5	46,372
679,7	44,486
679,9	46,217
680,2	43,856
680,4	47,319
680,6	44,328
680,9	44,052
681,1	44,712
681,3	46,489
681,6	46,142
681,8	47,028
682	47,537
682,3	49,472
682,5	50,822
682,7	49,363
683	49,001
683,2	47,681
683,4	46,232
683,7	45,305
683,9	46,206
684,1	47,368
684,4	49,627
684,6	49,729
684,8	48,574
685,1	48,948
685,3	49,065
685,5	49,434
685,7	49,6
686	50,494
686,2	50,505
686,4	49,774
686,7	47,515
686,9	48,344
687,1	46,579
687,4	46,606
687,6	43,155
687,8	44,188
688,1	44,086
688,3	43,317
688,5	42,619
688,8	44,528
689	43,083
689,2	45,24
689,5	42,831
689,7	40,922
689,9	40,56
690,2	40,749
690,4	41,262
690,6	41,133
690,8	41,899
691,1	40,134
691,3	38,146
691,5	35,838
691,8	34,594
692	36,4
692,2	38,188
692,5	36,679
692,7	36,125
692,9	36,751
693,2	35,084
693,4	34,409
693,6	34,126
693,9	35,223
694,1	35,265
694,3	36,823
694,5	37,686
694,8	37,268
695	37,17
695,2	36,6
695,5	36,366
695,7	35,039
695,9	34,854
696,2	34,718
696,4	32,55
696,6	33,096
696,9	33,896
697,1	36,694
697,3	38,346
697,6	38,784
697,8	39,078
698	40,096
698,2	38,897
698,5	39,847
698,7	41,141
698,9	43,43
699,2	42,97
699,4	39,968
699,6	42,208
699,9	40,27
700,1	39,587
700,3	41,835
700,6	43,159
700,8	44,071
701	43,694
701,2	42,963
701,5	42,695
701,7	42,189
701,9	42,227
702,2	43,415
702,4	44,784
702,6	45,116
702,9	44,739
703,1	43,14
703,3	45,471
703,6	46,391
703,8	45,768
704	45,584
704,2	42,71
704,5	41,71
704,7	42,167
704,9	42,008
705,2	41,409
705,4	42,035
705,6	42,529
705,9	42,14
706,1	42,223
706,3	40,771
706,5	40,504
706,8	39,508
707	40,473
707,2	40,933
707,5	39,3
707,7	37,769
707,9	36,702
708,2	35,672
708,4	35,997
708,6	35,009
708,8	34,009
709,1	34,42
709,3	33,191
709,5	31,818
709,8	32,429
710	34,481
710,2	33,749
710,5	32,372
710,7	30,619
710,9	31,237
711,1	30,867
711,4	31,23
711,6	30,898
711,8	31,335
712,1	30,886
712,3	30,438
712,5	30,585
712,8	31,452
713	30,03
713,2	28,212
713,4	28,831
713,7	29,762
713,9	29,182
714,1	30,498
714,4	29,14
714,6	28,563
714,8	28,031
715,1	27,782
715,3	28,869
715,5	27,115
715,7	26,485
716	25,738
716,2	25,207
716,4	25,022
716,7	24,614
716,9	24,811
717,1	21,767
717,3	22,155
717,6	21,654
717,8	21,311
718	20,662
718,3	20,13
718,5	20,017
718,7	20,341
718,9	18,916
719,2	18,014
719,4	17,882
719,6	15,789
719,9	13,979
720,1	15,352
720,3	15,076
720,6	12,723
720,8	11,414
721	11,437
721,2	10,245
721,5	9,717
721,7	9,544
721,9	9,962
722,2	8,974
722,4	8,043
722,6	10,166
722,8	11,056
723,1	13,021
723,3	13,964
723,5	13,025
723,8	13,553
724	11,995
724,2	12,022
724,4	12,998
724,7	14,435
724,9	15,201
725,1	16,087
725,4	17,679
725,6	16,253
725,8	15,578
726	15,061
726,3	13,817
726,5	13,738
726,7	15,08
727	13,025
727,2	11,833
727,4	12,41
727,6	13,941
727,9	14,899
728,1	15,261
728,3	14,616
728,6	16,197
728,8	17,588
729	16,302
729,2	18,814
729,5	17,83
729,7	16,758
729,9	16,479
730,2	15,295
730,4	15,148
730,6	15,733
730,8	14,156
731,1	14,726
731,3	15,412
731,5	14,137
731,7	12,203
732	11,837
732,2	10,837
732,4	10,192
732,7	11,961
732,9	11,659
733,1	11,331
733,3	12,263
733,6	12,357
733,8	12,376
734	16,841
734,3	17,547
734,5	19,417
734,7	20,213
734,9	19,972
735,2	21,861
735,4	22,333
735,6	21,824
735,9	22,012
736,1	23,589
736,3	23,6
736,5	24,505
736,8	24,143
737	23,03
737,2	22,416
737,4	21,269
737,7	21,956
737,9	25,406
738,1	24,441
738,4	24,554
738,6	25,478
738,8	26,006
739	25,256
739,3	26,01
739,5	24,641
739,7	24,569
739,9	27,13
740,2	28,997
740,4	28,718
740,6	27,99
740,9	27,775
741,1	25,599
741,3	24,233
741,5	22,159
741,8	21,639
742	22,242
742,2	21,906
742,4	21,974
742,7	22,25
742,9	21,82
743,1	20,236
743,4	17,686
743,6	17,513
743,8	17,988
744	19,357
744,3	20,628
744,5	20,33
744,7	20,187
744,9	18,757
745,2	21,262
745,4	20,488
745,6	19,825
745,8	19,749
746,1	21,737
746,3	23,528
746,5	26,451
746,8	25,467
747	25,052
747,2	25,576
747,4	27,583
747,7	27,986
747,9	29,159
748,1	27,96
748,3	30,136
748,6	31,365
748,8	30,324
749	29,793
749,2	27,903
749,5	27,1
749,7	27,073
749,9	27,541
750,2	29,808
750,4	30,641
750,6	31,241
750,8	31,271
751,1	30,909
751,3	29,563
751,5	31,641
751,7	32,169
752	31,803
752,2	30,784
752,4	30,652
752,6	30,86
752,9	30,724
753,1	29,525
753,3	28,469
753,5	27,175
753,8	28,525
754	26,956
754,2	26,032
754,4	25,508
754,7	25,259
754,9	23,966
755,1	24,946
755,4	24,177
755,6	24,618
755,8	25,406
756	24,362
756,3	23,721
756,5	22,834
756,7	21,348
756,9	20,368
757,2	18,591
757,4	18,595
757,6	16,317
757,8	14,394
758,1	15,408
758,3	16,581
758,5	13,832
758,7	11,773
759	9,532
759,2	9,962
759,4	10,026
759,6	10,215
759,9	9,913
760,1	10,694
760,3	8,574
760,5	8,416
760,8	6,662
761	7,171
761,2	6,813
761,4	7,703
761,7	7,782
761,9	8,952
762,1	8,514
762,3	7,779
762,6	5,425
762,8	5,489
763	5,09
763,2	8,111
763,5	9,457
763,7	9,793
763,9	9,925
764,1	9,627
764,4	8,974
764,6	10,92
764,8	12,783
765	11,644
765,3	10,958
765,5	11,629
765,7	11,863
765,9	13,639
766,2	12,746
766,4	13,564
766,6	12,191
766,8	12,768
767,1	11,516
767,3	12,293
767,5	12,595
767,7	14,032
768	13,462
768,2	14,167
768,4	12,478
768,6	11,969
768,9	11,358
769,1	11,939
769,3	12,949
769,5	13,67
769,8	14,367
770	16,257
770,2	13,964
770,4	14,484
770,7	15,427
770,9	15,816
771,1	14,952
771,3	16,344
771,6	16,031
771,8	16,287
772	15,469
772,2	14,729
772,5	15,729
772,7	16,562
772,9	15,736
773,1	14,692
773,4	14,688
773,6	16,083
773,8	14,299
774	14,662
774,3	15,329
774,5	13,907
774,7	13,074
774,9	12,436
775,2	11,874
775,4	13,025
775,6	12,304
775,8	12,678
776	13,436
776,3	12,919
776,5	12,829
776,7	12,35
776,9	12,991
777,2	13,447
777,4	12,704
777,6	12,478
777,8	12,406
778,1	14,096
778,3	13,055
778,5	11,784
778,7	11,769
779	11,441
779,2	12,666
779,4	12,787
779,6	12,316
779,9	12,097
780,1	12,814
780,3	12,225
780,5	10,551
780,7	11,245
781	12,029
781,2	11,916
781,4	11,686
781,6	11,912
781,9	13,145
782,1	11,565
782,3	10,871
782,5	10,562
782,8	9,068
783	9,751
783,2	9,238
783,4	9,246
783,7	8,295
783,9	6,3
784,1	4,927
784,3	4,799
784,5	3,743
784,8	1,974
785	0,571
785,2	-0,119
785,4	0,409
785,7	-0,353
785,9	1,171
786,1	-0,126
786,3	-0,553
786,6	-0,236
786,8	0,817
787	1,156
787,2	3,11
787,4	3,4
787,7	3,909
787,9	3,453
788,1	3,4
788,3	3,905
788,6	2,401
788,8	0,315
789	0,3
789,2	-0,243
789,5	0,236
789,7	-0,356
789,9	-1,797
790,1	-2,6
790,3	-2,189
790,6	-0,96
790,8	-0,745
791	0,062
791,2	1,529
791,5	3,86
791,7	4,007
791,9	4,577
792,1	5,406
792,3	4,328
792,6	3,328
792,8	1,031
793	3,223
793,2	4,132
793,5	3,611
793,7	3,426
793,9	2,325
794,1	0,255
794,3	0,503
794,6	1,028
794,8	-0,006
795	0,583
795,2	0,485
795,5	2,687
795,7	3,23
795,9	4,418
796,1	3,54
796,3	3,264
796,6	5,116
796,8	5,124
797	7,688
797,2	8,175
797,5	8,853
797,7	9,31
797,9	8,408
798,1	8,544
798,3	15,963
798,6	17,177
798,8	19,451
799	20,315
799,2	21,82
799,5	23,845
799,7	25,878
799,9	24,701
800,1	23,392
800,3	23,8
800,6	23,717
800,8	24,867
801	25,308
801,2	25,433
801,5	25,516
801,7	24,946
801,9	24,151
802,1	25,018
802,3	24,226
802,6	24,328
802,8	23,211
803	24,788
803,2	25,452
803,4	24,143
803,7	25,052
803,9	23,196
804,1	22,981
804,3	22,144
804,6	22,476
804,8	23,536
805	21,597
805,2	12,022
805,4	11,003
805,7	8,967
805,9	7,303
806,1	7,269
806,3	6,655
806,5	6,051
806,8	4,015
807	4,656
807,2	5,263
807,4	5,157
807,6	2,683
807,9	1,952
808,1	1,774
808,3	1,997
808,5	4,792
808,8	6,036
809	4,709
809,2	7,126
809,4	7,322
809,6	7,352
809,9	6,04
810,1	5,259
810,3	6,417
810,5	5,482
810,7	4,147
811	2,951
811,2	1,884
811,4	1,382
811,6	1,107
811,8	2,152
812,1	2,925
812,3	2,993
812,5	2,925
812,7	3,215
812,9	3,166
813,2	3,932
813,4	2,917
813,6	4,377
813,8	3,566
814	1,937
814,3	1,997
814,5	4,69
814,7	4,196
814,9	2,284
815,2	1,737
815,4	0,681
815,6	0,028
815,8	-0,666
816	-3,083
816,3	-2,748
816,5	-3,653
816,7	-2,514
816,9	-0,832
817,1	-1,326
817,4	-2,687
817,6	-2,167
817,8	-2,178
818	-2,665
818,2	-3,019
818,5	-3,909
818,7	-4,973
818,9	-6,515
819,1	-4,777
819,3	-4,539
819,6	-3,336
819,8	-1,152
820	-3,125
820,2	-3,023
820,4	-2,638
820,7	-3,064
820,9	-0,639
821,1	-0,074
821,3	-1,062
821,5	0,632
821,8	2,944
822	1,861
822,2	2,385
822,4	1,216
822,6	1,533
822,9	1,948
823,1	0,575
823,3	1,13
823,5	-0,488
823,7	-0,349
823,9	-1,062
824,2	-0,666
824,4	-0,892
824,6	0,534
824,8	0,277
825	0,421
825,3	-0,466
825,5	-0,066
825,7	0,741
825,9	-0,752
826,1	-0,832
826,4	-1,48
826,6	-4,169
826,8	-5,071
827	-4,875
827,2	-5,753
827,5	-4,475
827,7	-4,833
827,9	-4,992
828,1	-4,467
828,3	-4,562
828,6	-4,709
828,8	-3,464
829	-4,49
829,2	-4,252
829,4	-2,363
829,6	-2,759
829,9	-1,612
830,1	-1,744
830,3	-1,676
830,5	-2,061
830,7	-1,461
831	-1,171
831,2	-0,741
831,4	-2,208
831,6	-1,273
831,8	-1,175
832,1	0,447
832,3	0,583
832,5	2,05
832,7	1,382
832,9	1,194
833,1	1,367
833,4	2,246
833,6	4,43
833,8	5,995
834	6,681
834,2	7,183
834,5	5,346
834,7	3,419
834,9	2,981
835,1	2,02
835,3	1,876
835,5	1,371
835,8	1,782
836	2,408
836,2	0,734
836,4	1,627
836,6	0,3
836,9	0,092
837,1	0,507
837,3	0,496
837,5	-0,345
837,7	-0,594
837,9	-1,246
838,2	0,255
838,4	-0,307
838,6	0,798
838,8	0,945
839	0,319
839,3	-0,315
839,5	1,507
839,7	2,099
839,9	1,873
840,1	1,228
840,3	2,766
840,6	0,488
840,8	1,884
841	0,436
841,2	1,808
841,4	3,325
841,7	3,728
841,9	4,117
842,1	3,969
842,3	3,871
842,5	3,758
842,7	4,513
843	4,298
843,2	2,008
843,4	4,86
843,6	5,61
843,8	6,481
844	6,485
844,3	6,734
844,5	6,24
844,7	5,591
844,9	5,418
845,1	4,818
845,4	3,392
845,6	4,46
845,8	6,723
846	5,282
846,2	4,083
846,4	4,69
846,7	4,384
846,9	4,878
847,1	3,494
847,3	4,826
847,5	3,494
847,7	4,298
848	2,34
848,2	1,978
848,4	1,458
848,6	0,96
848,8	0,503
849	0,183
849,3	-0,322
849,5	-0,681
849,7	-1,141
849,9	-1,148
850,1	-4,188
850,3	-2,797
850,6	-2,906
850,8	-4,181
851	-5,897
851,2	-5,734
851,4	-4,629
851,6	-6,044
851,9	-5,131
852,1	-3,494
852,3	-6,896
852,5	-8,639
852,7	-7,59
852,9	-6,824
853,2	-7,032
853,4	-6,915
853,6	-8,593
853,8	-9,623
854	-11,124
854,2	-10,136
854,5	-10,773
854,7	-10,305
854,9	-9,962
855,1	-9,498
855,3	-9,035
855,5	-8,016
855,8	-7,994
856	-9,299
856,2	-10,592
856,4	-8,88
856,6	-7,79
856,8	-6,979
857,1	-6,44
857,3	-7,518
857,5	-6,794
857,7	-3,389
857,9	-2,804
858,1	-1,857
858,4	-2,906
858,6	-2,687
858,8	-4,607
859	-2,823
859,2	-4,052
859,4	-3,638
859,7	-4,652
859,9	-4,833
860,1	-4,754
860,3	-3,928
860,5	-3,555
860,7	-3,423
860,9	-4,875
861,2	-3,962
861,4	-3,128
861,6	-2,676
861,8	-2,642
862	-2,849
862,2	-3,223
862,5	-3,328
862,7	-1,959
862,9	-1,842
863,1	-1,952
863,3	-1,36
863,5	-0,786
863,8	-2,691
864	-0,881
864,2	0,27
864,4	-1,541
864,6	-2,755
864,8	-3,792
865	-2,864
865,3	-2,514
865,5	-2,74
865,7	-2,453
865,9	-1,522
866,1	-3,257
866,3	-3,291
866,6	-3,37
866,8	-4,132
867	-4,611
867,2	-4,546
867,4	-3,709
867,6	-3,853
867,8	-4,362
868,1	-5,191
868,3	-5,557
868,5	-5,723
868,7	-6,904
868,9	-7,443
869,1	-6,451
869,3	-6,662
869,6	-7,07
869,8	-7,432
870	-7,948
870,2	-8,495
870,4	-8,571
870,6	-9,151
870,9	-10,479
871,1	-11,312
871,3	-10,453
871,5	-10,913
871,7	-8,967
871,9	-10,551
872,1	-10,204
872,4	-10,841
872,6	-11,015
872,8	-9,378
873	-9,789
873,2	-9,521
873,4	-7,594
873,6	-6,636
873,9	-6,881
874,1	-7,564
874,3	-7,899
874,5	-8,537
874,7	-8,48
874,9	-9,155
875,1	-9,661
875,4	-8,488
875,6	-9,027
875,8	-8,51
876	-6,293
876,2	-5,644
876,4	-7,36
876,6	-6,772
876,9	-6,025
877,1	-6,142
877,3	-7,356
877,5	-8,269
877,7	-7,002
877,9	-6,115
878,1	-6,828
878,4	-8,424
878,6	-7,398
878,8	-6,824
879	-7,764
879,2	-6,496
879,4	-7,748
879,6	-5,689
879,9	-7,368
880,1	-7,888
880,3	-8,891
880,5	-8,216
880,7	-6,726
880,9	-6,338
881,1	-5,018
881,3	-3,668
881,6	-3,645
881,8	-4,716
882	-4,633
882,2	-2,355
882,4	-3,196
882,6	-5,667
882,8	-5,836
883,1	-5,289
883,3	-6,304
883,5	-7,205
883,7	-5,757
883,9	-5,885
884,1	-5,765
884,3	-6,938
884,6	-8,835
884,8	-5,946
885	-6,051
885,2	-6,987
885,4	-6,93
885,6	-5,305
885,8	-5,618
886	-4,55
886,3	-5,678
886,5	-5,429
886,7	-6,379
886,9	-4,961
887,1	-5,923
887,3	-7,428
887,5	-6,904
887,8	-7,175
888	-9,076
888,2	-8,42
888,4	-8,31
888,6	-8,073
888,8	-9,472
889	-8,344
889,2	-8,65
889,5	-10,128
889,7	-9,468
889,9	-7,337
890,1	-7,635
890,3	-9,133
890,5	-8,156
890,7	-7,658
890,9	-7,862
891,2	-6,621
891,4	-9,136
891,6	-8,175
891,8	-6,972
892	-8,288
892,2	-9,031
892,4	-11,358
892,6	-11,844
892,9	-12,519
893,1	-11,346
893,3	-10,136
893,5	-10,962
893,7	-10,29
893,9	-9,755
894,1	-10,332
894,3	-10,762
894,6	-11,011
894,8	-10,947
895	-9,423
895,2	-9,951
895,4	-9,547
895,6	-11,346
895,8	-11,113
896	-9,585
896,3	-10,336
896,5	-11,414
896,7	-10,63
896,9	-10,381
897,1	-10,532
897,3	-11,09
897,5	-9,823
897,7	-9,891
898	-7,613
898,2	-9,182
898,4	-10,241
898,6	-9,453
898,8	-10,268
899	-8,601
899,2	-6,956
899,4	-5,734
899,6	-6,572
899,9	-7,379
900,1	-5,078
900,3	-4,448
900,5	-3,626
900,7	-3,392
900,9	-4,35
901,1	-2,668
901,3	-4,452
901,6	-5,52
901,8	-5,512
902	-6,945
902,2	-6,945
902,4	-7,337
902,6	-8,265
902,8	-9,117
903	-11,15
903,2	-12,346
903,5	-12,595
903,7	-13,232
903,9	-13,575
904,1	-13,696
904,3	-13,266
904,5	-14,767
904,7	-13,108
904,9	-12,78
905,1	-12,78
905,4	-11,113
905,6	-11,094
905,8	-12,761
906	-12,84
906,2	-12,384
906,4	-12,61
906,6	-14,861
906,8	-13,56
907	-13,885
907,3	-14,088
907,5	-15,627
907,7	-16,626
907,9	-14,594
908,1	-14,805
908,3	-15,265
908,5	-14,571
908,7	-14,933
908,9	-15,11
909,2	-14,812
909,4	-13,032
909,6	-11,422
909,8	-12,433
910	-13,368
910,2	-12,101
910,4	-12,063
910,6	-11,901
910,8	-13,862
911,1	-12,006
911,3	-10,958
911,5	-11,275
911,7	-11,29
911,9	-11,482
912,1	-11,101
912,3	-12,108
912,5	-11,328
912,7	-11,69
912,9	-11,128
913,2	-10,641
913,4	-13,168
913,6	-12,154
913,8	-12,104
914	-9,087
914,2	-9,781
914,4	-9,596
914,6	-9,529
914,8	-9,08
915,1	-7,541
915,3	-7,039
915,5	-5,516
915,7	-5,403
915,9	-5,112
916,1	-6,093
916,3	-5,384
916,5	-4,271
916,7	-4,094
916,9	-2,431
917,2	-3,434
917,4	-1,303
917,6	-3,242
917,8	-4,637
918	-6,387
918,2	-5,844
918,4	-7,865
918,6	-8,408
918,8	-7,5
919	-8,669
919,2	-7,153
919,5	-5,806
919,7	-7,454
919,9	-7,111
920,1	-8,39
920,3	-8,54
920,5	-9,129
920,7	-7,628
920,9	-9,204
921,1	-9,061
921,3	-9,97
921,6	-11,708
921,8	-11,637
922	-13,319
922,2	-14,635
922,4	-14,613
922,6	-15,499
922,8	-14,284
923	-15,016
923,2	-16,125
923,4	-18,195
923,6	-18,21
923,9	-19,312
924,1	-19,976
924,3	-21,737
924,5	-20,292
924,7	-20,813
924,9	-18,622
925,1	-18,603
925,3	-18,984
925,5	-18,32
925,7	-19,964
925,9	-21,741
926,2	-19,73
926,4	-20,752
926,6	-20,108
926,8	-20,492
927	-21,077
927,2	-21,103
927,4	-21,145
927,6	-21,311
927,8	-20,462
928	-20,85
928,2	-21,19
928,5	-20,368
928,7	-19,58
928,9	-19,168
929,1	-17,203
929,3	-17,022
929,5	-15,552
929,7	-16,102
929,9	-14,959
930,1	-15,567
930,3	-15,623
930,5	-13,111
930,8	-10,86
931	-10,019
931,2	-10,162
931,4	-11,584
931,6	-11,033
931,8	-10,445
932	-11,475
932,2	-12,263
932,4	-13,968
932,6	-15,484
932,8	-15,823
933	-18,369
933,3	-18,761
933,5	-17,845
933,7	-18,195
933,9	-17,86
934,1	-16,792
934,3	-16,095
934,5	-14,733
934,7	-14,812
934,9	-15,05
935,1	-14,616
935,3	-15,34
935,5	-17,151
935,7	-17,875
936	-17,98
936,2	-18,12
936,4	-18,278
936,6	-16,657
936,8	-16,374
937	-18,508
937,2	-20,36
937,4	-20,824
937,6	-21,077
937,8	-20,006
938	-22,197
938,2	-22,318
938,4	-21,039
938,7	-20,164
938,9	-19,168
939,1	-18,776
939,3	-16,777
939,5	-14,462
939,7	-14,771
939,9	-16,034
940,1	-16,476
940,3	-15,687
940,5	-16,351
940,7	-17,162
940,9	-16,853
941,1	-16,883
941,4	-16,936
941,6	-16,453
941,8	-16,849
942	-15,423
942,2	-15,834
942,4	-16,095
942,6	-13,983
942,8	-14,273
943	-15,22
943,2	-14,801
943,4	-14,273
943,6	-13,274
943,8	-13,145
944	-13,885
944,3	-14,352
944,5	-13,489
944,7	-12,082
944,9	-12,123
945,1	-11,516
945,3	-10,852
945,5	-9,8
945,7	-10,049
945,9	-11,32
946,1	-9,434
946,3	-9,634
946,5	-10,147
946,7	-11,041
946,9	-10,777
947,1	-10,415
947,4	-11,788
947,6	-13,191
947,8	-13,36
948	-14,179
948,2	-13,575
948,4	-14,628
948,6	-13,707
948,8	-13,176
949	-14,243
949,2	-13,952
949,4	-13,7
949,6	-15,027
949,8	-14,435
950	-15,265
950,2	-13,021
950,5	-11,539
950,7	-11,957
950,9	-11,343
951,1	-14,009
951,3	-13,228
951,5	-13,677
951,7	-15,284
951,9	-15,521
952,1	-15,982
952,3	-15,804
952,5	-16,872
952,7	-16,668
952,9	-15,65
953,1	-15,993
953,3	-16,555
953,5	-17,543
953,8	-16,672
954	-14,575
954,2	-16,004
954,4	-15,423
954,6	-17,245
954,8	-16,668
955	-16,246
955,2	-15,804
955,4	-16,83
955,6	-17,796
955,8	-16,287
956	-15,601
956,2	-16,147
956,4	-15,378
956,6	-18,037
956,8	-17,777
957	-17,649
957,2	-17,49
957,5	-16,906
957,7	-18,407
957,9	-18,652
958,1	-17,754
958,3	-19,142
958,5	-19,938
958,7	-19,994
958,9	-19,787
959,1	-19,187
959,3	-19,097
959,5	-20,017
959,7	-19,889
959,9	-19,757
960,1	-20,33
960,3	-19,738
960,5	-16,804
960,7	-16,702
960,9	-14,409
961,1	-15,046
961,4	-16,329
961,6	-18,637
961,8	-18,965
962	-18,105
962,2	-17,139
962,4	-18,78
962,6	-18,097
962,8	-19,297
963	-19,357
963,2	-20,62
963,4	-20,488
963,6	-21,703
963,8	-21,601
964	-22,925
964,2	-23,758
964,4	-22,653
964,6	-21,363
964,8	-20,915
965	-20,828
965,2	-21,39
965,5	-21,725
965,7	-21,179
965,9	-20,043
966,1	-20,556
966,3	-19,259
966,5	-16,981
966,7	-19,719
966,9	-19,9
967,1	-20,764
967,3	-21,118
967,5	-19,742
967,7	-20,194
967,9	-18,855
968,1	-16,992
968,3	-15,333
968,5	-17,113
968,7	-14,763
968,9	-14,628
969,1	-13,364
969,3	-11,162
969,5	-11,388
969,7	-9,974
969,9	-8,518
970,2	-8,329
970,4	-7,107
970,6	-6,613
970,8	-7,288
971	-5,844
971,2	-5,482
971,4	-5,067
971,6	-4,068
971,8	-3,494
972	-4,207
972,2	-3,396
972,4	-3,619
972,6	-5,455
972,8	-6,73
973	-5,24
973,2	-5,742
973,4	-5,478
973,6	-6,696
973,8	-7,477
974	-7,032
974,2	-7,22
974,4	-9,634
974,6	-10,668
974,8	-9,623
975	-10,298
975,2	-11,433
975,5	-12,674
975,7	-12,595
975,9	-11,015
976,1	-12,244
976,3	-13,149
976,5	-12,293
976,7	-12,565
976,9	-12,101
977,1	-13,149
977,3	-14,141
977,5	-15,529
977,7	-15,748
977,9	-15,408
978,1	-15,408
978,3	-14,367
978,5	-15,039
978,7	-14,175
978,9	-13,266
979,1	-13,01
979,3	-12,01
979,5	-12,534
979,7	-12,908
979,9	-12,342
980,1	-12,976
980,3	-13,081
980,5	-12,881
980,7	-11,067
980,9	-9,393
981,1	-10,592
981,3	-10,332
981,5	-9,921
981,7	-9,419
981,9	-10,705
982,2	-10,894
982,4	-11,147
982,6	-9,216
982,8	-10,83
983	-11,576
983,2	-11,512
983,4	-10,777
983,6	-11,893
983,8	-9,464
984	-8,688
984,2	-8,51
984,4	-8,612
984,6	-10,932
984,8	-11,222
985	-9,966
985,2	-8,974
985,4	-10,536
985,6	-12,614
985,8	-12,206
986	-10,551
986,2	-9,348
986,4	-9,468
986,6	-7,171
986,8	-8,31
987	-7,243
987,2	-9,068
987,4	-9,713
987,6	-9,8
987,8	-9,728
988	-9,08
988,2	-10,373
988,4	-11,147
988,6	-11,196
988,8	-14,247
989	-12,727
989,2	-12,531
989,4	-12,184
989,6	-12,485
989,8	-12,067
990	-11,916
990,2	-12,093
990,4	-13,123
990,6	-12,014
990,8	-10,46
991	-9,525
991,3	-11,505
991,5	-12,7
991,7	-12,923
991,9	-12,512
992,1	-13,349
992,3	-13,579
992,5	-14,518
992,7	-13,907
992,9	-15,484
993,1	-15,156
993,3	-16,755
993,5	-17,351
993,7	-16,208
993,9	-15,586
994,1	-16,14
994,3	-15,54
994,5	-14,348
994,7	-13,462
994,9	-13,342
995,1	-12,044
995,3	-11,965
995,5	-11,509
995,7	-12,289
995,9	-10,928
996,1	-11,354
996,3	-13,753
996,5	-14,42
996,7	-15,333
996,9	-16,419
997,1	-18,184
997,3	-19,945
997,5	-19,508
997,7	-19,342
997,9	-19,681
998,1	-16,996
998,3	-16,404
998,5	-16,77
998,7	-16,77
998,9	-15,642
999,1	-15,288
999,3	-14,854
999,5	-15,02
999,7	-16,136
999,9	-18,026
1000,1	-19,629
1000,3	-18,648
1000,5	-20,292
1000,7	-20,485
1000,9	-21,397
1001,1	-20,866
1001,3	-20,179
1001,5	-20,967
1001,7	-20,926
1001,9	-20,986
1002,1	-21,824
1002,3	-21,224
1002,5	-21,593
1002,7	-21,59
1002,9	-21,548
1003,1	-22,099
1003,3	-21,156
1003,5	-18,769
1003,7	-19,036
1003,9	-17,426
1004,1	-16,098
1004,3	-17,2
1004,5	-15,454
1004,7	-15,718
1004,9	-16,694
1005,1	-17,366
1005,3	-17,283
1005,5	-18,508
1005,7	-17,147
1005,9	-17,015
1006,1	-14,662
1006,3	-13,839
1006,5	-15,193
1006,7	-13,836
1006,9	-13,511
1007,1	-13,387
1007,3	-13,492
1007,5	-13,387
1007,7	-13,881
1007,9	-15,027
1008,1	-14,993
1008,3	-15,435
1008,5	-15,212
1008,7	-10,871
1008,9	-10,064
1009,1	-8,035
1009,3	-8,906
1009,5	-8,54
1009,7	-9,461
1009,9	-8,533
1010,1	-10,49
1010,3	-9,37
1010,5	-10,837
1010,7	-13,006
1010,9	-13,768
1011,1	-12,998
1011,3	-12,938
1011,5	-14,16
1011,7	-13,21
1011,9	-14,439
1012,1	-12,184
1012,3	-12,847
1012,5	-12,889
1012,7	-12,21
1012,9	-12,244
1013,1	-13,406
1013,3	-12,814
1013,5	-13,021
1013,7	-13,67
1013,9	-14,051
1014,1	-13,093
1014,3	-13,609
1014,5	-14,062
1014,7	-13,9
1014,9	-17,909
1015,1	-17,275
1015,3	-19,459
1015,5	-19,644
1015,7	-20,372
1015,9	-19,919
1016,1	-21,526
1016,3	-19,745
1016,5	-21,903
1016,7	-20,832
1016,9	-21,265
1017,1	-21,544
1017,3	-22,016
1017,5	-21,748
1017,7	-21,148
1017,9	-21,91
1018,1	-21,005
1018,3	-21,986
1018,5	-23,234
1018,7	-22,861
1018,9	-22,864
1019,1	-24,271
1019,2	-25,312
1019,4	-25,576
1019,6	-25,501
1019,8	-25,833
1020	-24,916
1020,2	-24,92
1020,4	-21,725
1020,6	-21,337
1020,8	-23,389
1021	-21,609
1021,2	-22,812
1021,4	-21,454
1021,6	-18,539
1021,8	-17,43
1022	-18,716
1022,2	-17,317
1022,4	-16,725
1022,6	-17,43
1022,8	-17,494
1023	-17,656
1023,2	-17,207
1023,4	-17,464
1023,6	-17,958
1023,8	-14,688
1024	-14,043
1024,2	-16,442
1024,4	-16,061
1024,6	-15,989
1024,8	-17,268
1025	-15,887
1025,2	-15,537
1025,4	-12,961
1025,6	-13,647
1025,8	-14,032
1026	-13,696
1026,2	-13,383
1026,4	-13,417
1026,6	-15,514
1026,8	-14,19
1027	-13,632
1027,2	-14,198
1027,4	-14,982
1027,6	-14,892
1027,8	-17,415
1028	-18,124
1028,1	-16,547
1028,3	-17,486
1028,5	-19,172
1028,7	-18,788
1028,9	-20,703
1029,1	-20,617
1029,3	-20,666
1029,5	-20,417
1029,7	-21,835
1029,9	-24,663
1030,1	-22,208
1030,3	-20,662
1030,5	-19,557
1030,7	-18,226
1030,9	-16,246
1031,1	-17,317
1031,3	-17,494
1031,5	-17,501
1031,7	-17,649
1031,9	-17,105
1032,1	-16,596
1032,3	-17,999
1032,5	-18,339
1032,7	-20,202
1032,9	-21,571
1033,1	-20,847
1033,3	-20,496
1033,5	-20,428
1033,7	-22,023
1033,9	-21,39
1034,1	-21,182
1034,3	-20,025
1034,4	-19,712
1034,6	-19,093
1034,8	-17,543
1035	-15,559
1035,2	-16,121
1035,4	-14,805
1035,6	-15,212
1035,8	-14,348
1036	-14,511
1036,2	-17,517
1036,4	-17,928
1036,6	-19,915
1036,8	-22,072
1037	-22,333
1037,2	-23,936
1037,4	-24,524
1037,6	-26,164
1037,8	-25,459
1038	-26,413
1038,2	-26,998
1038,4	-26,866
1038,6	-25,674
1038,8	-24,049
1039	-22,348
1039,2	-22,672
1039,4	-23,626
1039,5	-22,627
1039,7	-21,375
1039,9	-20,047
1040,1	-20,251
1040,3	-21,933
1040,5	-20,617
1040,7	-22,005
1040,9	-22,804
1041,1	-24,935
1041,3	-23,615
1041,5	-25,312
1041,7	-24,792
1041,9	-24,407
1042,1	-24,645
1042,3	-23,951
1042,5	-23,496
1042,7	-23,115
1042,9	-21,892
1043,1	-22,896
1043,3	-21,638
1043,5	-20,575
1043,7	-19,461
1043,8	-19,639
1044	-18,605
1044,2	-18,481
1044,4	-17,251
1044,6	-18,593
1044,8	-18,96
1045	-21,096
1045,2	-20,928
