Data from FLMT021711__24__17-07-59-962.txt Node

Date: Tue Nov 05 17:07:59 CET 2024
User: Etudiants TP
Spectrometer: FLMT02171
Trigger mode: 0
Integration Time (sec): 1,000000E-1
Scans to average: 5
Electric dark correction enabled: true
Nonlinearity correction enabled: false
Boxcar width: 15
XAxis mode: Wavelengths
Number of Pixels in Spectrum: 3648
>>>>>Begin Spectral Data<<<<<
194,658	-56,35
194,923	-56,18
195,188	-49,99
195,453	-49,49
195,717	-43,91
195,982	-41,21
196,247	-38,75
196,512	-39,58
196,777	-36,9
197,042	-34,77
197,307	-36,05
197,572	-31,47
197,837	-29,84
198,101	-27,07
198,366	-24,75
198,631	-22,99
198,896	-16,92
199,161	-10,84
199,425	-4,27
199,69	6,38
199,955	6,71
200,22	4,92
200,484	4,93
200,749	5,68
201,014	7,78
201,278	8,33
201,543	9,51
201,807	10,03
202,072	13,02
202,337	14,19
202,601	13,79
202,866	11,43
203,13	13,28
203,395	11,25
203,659	11,77
203,924	10,85
204,189	11,42
204,453	12,05
204,717	14,13
204,982	13,9
205,246	14,87
205,511	17,65
205,775	16,11
206,04	20,26
206,304	20,47
206,568	21,84
206,833	22,38
207,097	23,86
207,361	26,41
207,626	28,99
207,89	29,3
208,154	30,1
208,419	30,92
208,683	30,43
208,947	32,05
209,211	32,38
209,476	32,28
209,74	31,91
210,004	32,45
210,268	31,57
210,532	33,86
210,796	33,55
211,061	35,48
211,325	36,93
211,589	36,54
211,853	36,79
212,117	37,68
212,381	37,12
212,645	37,22
212,909	37,1
213,173	35,88
213,437	36,85
213,701	38,33
213,965	38,03
214,229	32,81
214,493	32,69
214,757	31,97
215,021	31,09
215,285	33,6
215,549	34,64
215,813	32,8
216,077	32,2
216,34	34,67
216,604	34,64
216,868	35,49
217,132	36,3
217,396	35,41
217,659	34,93
217,923	32,32
218,187	31,68
218,451	30,6
218,714	27,13
218,978	27,55
219,242	29,91
219,505	29,55
219,769	30,79
220,033	31,68
220,296	31,61
220,56	33,31
220,824	31,58
221,087	31,97
221,351	32,01
221,614	31,77
221,878	31,83
222,142	31,15
222,405	31,86
222,669	33,1
222,932	28,61
223,196	27,57
223,459	24,72
223,722	24,66
223,986	23,88
224,249	23,45
224,513	23,04
224,776	22,65
225,04	22,72
225,303	22,89
225,566	22,03
225,83	23,7
226,093	26,51
226,356	25,07
226,62	23,92
226,883	25,97
227,146	26,57
227,409	25,71
227,673	23,92
227,936	23,11
228,199	23,09
228,462	22,38
228,725	20,49
228,989	20,7
229,252	21,54
229,515	25,14
229,778	22,59
230,041	21,91
230,304	20,72
230,567	21,41
230,83	19,93
231,093	22,85
231,356	22,11
231,619	27,79
231,882	26,94
232,145	28,1
232,408	26,7
232,671	26,53
232,934	26,19
233,197	23,5
233,46	21,25
233,723	22,51
233,986	21,63
234,249	19,65
234,512	21,55
234,775	24,62
235,037	24,45
235,3	24,64
235,563	24,23
235,826	26,18
236,089	29,05
236,351	27,99
236,614	29,64
236,877	30,28
237,14	31,65
237,402	30,67
237,665	27,18
237,928	26,89
238,19	24,27
238,453	27,16
238,716	27,45
238,978	27,67
239,241	27,97
239,503	30,8
239,766	26,18
240,029	25,05
240,291	27,83
240,554	27,32
240,816	26,1
241,079	25,32
241,341	26,8
241,604	26,77
241,866	24,36
242,129	24,7
242,391	25,2
242,653	24,59
242,916	24,46
243,178	24,08
243,441	24,99
243,703	24,52
243,965	21,98
244,228	20,86
244,49	21,88
244,752	22,42
245,015	24,01
245,277	26,03
245,539	26,03
245,801	26,3
246,064	26,03
246,326	26,79
246,588	26,54
246,85	27,89
247,112	28,41
247,374	29,28
247,637	31,91
247,899	30,56
248,161	30,39
248,423	26,89
248,685	27,81
248,947	28,6
249,209	29,97
249,471	30,05
249,733	31,16
249,995	30,14
250,257	29,64
250,519	29,87
250,781	31,76
251,043	28,9
251,305	30,43
251,567	31,77
251,829	32,6
252,091	31,95
252,353	29,73
252,615	29,77
252,876	26,68
253,138	24,13
253,4	20,75
253,662	21,37
253,924	23,5
254,185	25,75
254,447	26,2
254,709	25,92
254,971	26,37
255,232	27,5
255,494	26,35
255,756	22,83
256,017	23,84
256,279	24,18
256,541	24,78
256,802	25,6
257,064	26,26
257,326	25,59
257,587	26,75
257,849	27,39
258,11	30,54
258,372	31,01
258,633	32,14
258,895	31,66
259,156	32,56
259,418	31,34
259,679	26,69
259,941	24,9
260,202	28,42
260,464	28,88
260,725	27,63
260,987	28,69
261,248	28,39
261,509	29,85
261,771	28,57
262,032	29,65
262,293	28,95
262,555	28,88
262,816	28,3
263,077	26,35
263,338	23,47
263,6	24,06
263,861	24,21
264,122	22,76
264,383	24,81
264,645	25,12
264,906	23,51
265,167	24,03
265,428	23,35
265,689	23,58
265,95	21,62
266,211	21,6
266,473	20,98
266,734	17,82
266,995	14,65
267,256	14,95
267,517	16,9
267,778	21,08
268,039	22,7
268,3	21,15
268,561	20,49
268,822	23,95
269,083	21,38
269,344	19,83
269,604	19,01
269,865	20,1
270,126	16,24
270,387	17,23
270,648	18,11
270,909	17,22
271,17	15,38
271,43	14,06
271,691	11,25
271,952	10,79
272,213	14,76
272,473	12,8
272,734	14,99
272,995	15,84
273,256	16,31
273,516	18,7
273,777	16,9
274,038	19,08
274,298	18,5
274,559	19,32
274,82	24,8
275,08	29
275,341	30,82
275,601	30,48
275,862	29
276,122	27,81
276,383	27,87
276,643	29,8
276,904	29,61
277,164	33,68
277,425	34,18
277,685	37,38
277,946	38,09
278,206	40,35
278,467	40,73
278,727	40,64
278,987	40,3
279,248	41,1
279,508	42,01
279,768	44,54
280,029	45,43
280,289	41,83
280,549	40,97
280,81	38,89
281,07	38,32
281,33	39,63
281,59	38,32
281,851	40,72
282,111	40,44
282,371	39,64
282,631	40,75
282,891	37,17
283,151	33,83
283,412	31,72
283,672	30,67
283,932	30,12
284,192	33,16
284,452	32,43
284,712	29,59
284,972	27,22
285,232	23,37
285,492	26,11
285,752	23,97
286,012	28,52
286,272	29,07
286,532	27,66
286,792	28,45
287,052	30,76
287,312	31,49
287,571	31,51
287,831	32,2
288,091	30,75
288,351	30,77
288,611	34,8
288,871	35,08
289,13	35,47
289,39	31,08
289,65	32,66
289,91	29,37
290,17	30,91
290,429	32,56
290,689	30
290,949	27,53
291,208	29,89
291,468	32,52
291,728	33,63
291,987	35,59
292,247	34,5
292,506	36,04
292,766	38,68
293,026	38,25
293,285	40,95
293,545	43,51
293,804	42,31
294,064	38,15
294,323	35,51
294,583	36,21
294,842	35,44
295,102	36,02
295,361	35,76
295,621	36,23
295,88	37,11
296,139	36,82
296,399	38,68
296,658	33,63
296,917	33,3
297,177	30,63
297,436	32,92
297,695	30,99
297,955	32,74
298,214	30,48
298,473	31,2
298,732	32,91
298,992	35,61
299,251	34,3
299,51	31,34
299,769	31,66
300,028	30,37
300,287	29,11
300,547	29,2
300,806	27,63
301,065	30,39
301,324	31,24
301,583	26,78
301,842	25,05
302,101	24,26
302,36	26,37
302,619	27,11
302,878	27,21
303,137	24,54
303,396	26,01
303,655	27,67
303,914	24,25
304,173	25,52
304,432	25,07
304,691	28,58
304,95	26,92
305,208	32,04
305,467	31,54
305,726	31,53
305,985	32,65
306,244	34,26
306,503	34,99
306,761	34,96
307,02	33,07
307,279	33,4
307,537	34,02
307,796	31,16
308,055	29,41
308,314	29,93
308,572	26,88
308,831	28,5
309,09	29,73
309,348	31,32
309,607	31,85
309,865	35,66
310,124	34,79
310,382	35,46
310,641	34,49
310,9	33,98
311,158	35,31
311,417	35,74
311,675	35,74
311,933	35,99
312,192	36,22
312,45	35,54
312,709	35,03
312,967	35,44
313,226	33,76
313,484	33,85
313,742	32,09
314,001	30,69
314,259	30,76
314,517	30,45
314,776	32,09
315,034	34,54
315,292	31,96
315,55	30,97
315,809	30,62
316,067	30,57
316,325	30,11
316,583	33,43
316,841	31,61
317,1	29,26
317,358	24,92
317,616	23,59
317,874	21,17
318,132	21,01
318,39	19,87
318,648	19,1
318,906	19,21
319,164	18,14
319,422	16,35
319,68	15,97
319,938	17,51
320,196	18,58
320,454	19,71
320,712	19,81
320,97	20,99
321,228	19,93
321,486	21,95
321,744	23,85
322,002	25,92
322,26	23,58
322,517	22,89
322,775	19,64
323,033	18,45
323,291	21,34
323,549	22,58
323,806	24,09
324,064	26,5
324,322	27,92
324,58	26,36
324,837	29,67
325,095	28,04
325,353	29,2
325,61	32,47
325,868	33,33
326,126	35,54
326,383	34,94
326,641	35,66
326,898	36,31
327,156	35,71
327,413	36,43
327,671	36,21
327,928	37,98
328,186	37,18
328,443	35,25
328,701	37,9
328,958	37,86
329,216	37,64
329,473	35,08
329,731	35,29
329,988	34,59
330,245	36,27
330,503	37,98
330,76	38,05
331,017	39,96
331,275	38,07
331,532	38,5
331,789	37,8
332,047	36,26
332,304	32,75
332,561	33,16
332,818	30,79
333,076	31,85
333,333	34,01
333,59	32,56
333,847	33,91
334,104	32,41
334,361	32,11
334,618	30,69
334,876	28,81
335,133	30,41
335,39	29,82
335,647	30,72
335,904	27,65
336,161	25,9
336,418	27,21
336,675	25,04
336,932	26,67
337,189	27,48
337,446	27,56
337,703	27,19
337,96	23,48
338,216	24,27
338,473	21,12
338,73	22,41
338,987	22,38
339,244	25,43
339,501	23,07
339,757	23,37
340,014	23,88
340,271	24,81
340,528	26,52
340,785	30,9
341,041	31,7
341,298	28,49
341,555	28,95
341,811	28,01
342,068	26,24
342,325	26,95
342,581	29,97
342,838	31,1
343,094	29,73
343,351	28,77
343,608	26,44
343,864	27,95
344,121	28,68
344,377	27,89
344,634	26,66
344,89	24,42
345,147	22,53
345,403	22,19
345,66	22,97
345,916	25,22
346,172	23,3
346,429	22,07
346,685	20,18
346,942	19,36
347,198	16,17
347,454	17,07
347,711	17,36
347,967	16,07
348,223	17,97
348,48	15,78
348,736	17,55
348,992	17,05
349,248	19,92
349,504	21,44
349,761	22,14
350,017	22,84
350,273	22,12
350,529	20,34
350,785	20,58
351,041	21,02
351,297	22,57
351,554	22,55
351,81	21,55
352,066	20,66
352,322	20,12
352,578	21,51
352,834	21,08
353,09	22,7
353,346	23,67
353,602	21,65
353,858	21,7
354,114	21,36
354,369	23,51
354,625	25,5
354,881	23,73
355,137	24,92
355,393	25,31
355,649	25,2
355,905	25,58
356,16	26,2
356,416	27,75
356,672	21,36
356,928	21,68
357,183	20,04
357,439	18,89
357,695	16,36
357,951	19,75
358,206	19,88
358,462	19,44
358,718	17,75
358,973	18,42
359,229	19,48
359,484	19,31
359,74	20,56
359,996	21,28
360,251	24,52
360,507	23,53
360,762	24,75
361,018	26,14
361,273	23,84
361,529	25,78
361,784	25,41
362,04	27,39
362,295	26,04
362,55	27,23
362,806	31,01
363,061	32,55
363,316	33,46
363,572	34,49
363,827	36,23
364,082	33,66
364,338	33,04
364,593	34,42
364,848	35,2
365,104	34,36
365,359	36,52
365,614	38,13
365,869	36,42
366,124	37,92
366,38	37,99
366,635	40,98
366,89	42,27
367,145	41,59
367,4	44,29
367,655	45,2
367,91	45,89
368,165	44,03
368,42	41,08
368,675	40,3
368,93	40,95
369,185	40,01
369,44	40,19
369,695	43,5
369,95	41,85
370,205	42,71
370,46	40,31
370,715	39,24
370,97	39,54
371,225	40,35
371,48	41,26
371,734	41,9
371,989	42,85
372,244	43,38
372,499	44,32
372,754	43,57
373,008	42,72
373,263	39,17
373,518	41,6
373,773	40,17
374,027	38,46
374,282	40,65
374,537	40,73
374,791	41,57
375,046	40,81
375,301	39,75
375,555	38,54
375,81	40,3
376,064	41,24
376,319	45,39
376,573	45,79
376,828	43,29
377,082	47,59
377,337	45,38
377,591	42,34
377,846	44,08
378,1	46,06
378,355	46,85
378,609	46,17
378,863	43,51
379,118	44,43
379,372	42,96
379,627	40,32
379,881	38,86
380,135	38,5
380,389	37,63
380,644	37,55
380,898	37,81
381,152	38,16
381,407	37,9
381,661	39,95
381,915	41,76
382,169	41,5
382,423	40,44
382,677	38,16
382,932	38,16
383,186	39,29
383,44	40,15
383,694	42,28
383,948	40,66
384,202	38,45
384,456	40,64
384,71	40,95
384,964	39
385,218	40,76
385,472	40,47
385,726	39,57
385,98	39,04
386,234	40,04
386,488	38,24
386,742	40,12
386,996	37,11
387,249	38,13
387,503	40,99
387,757	42,98
388,011	43,65
388,265	44,39
388,518	46,16
388,772	47,52
389,026	50,2
389,28	47,15
389,533	46,55
389,787	49,65
390,041	48,06
390,295	47,93
390,548	48,67
390,802	52,68
391,055	52,44
391,309	52,4
391,563	49,14
391,816	49,95
392,07	51,05
392,323	51,43
392,577	54,06
392,83	55,18
393,084	60,76
393,337	65,44
393,591	66,36
393,844	67,26
394,098	70,24
394,351	73,85
394,604	75,55
394,858	78,72
395,111	78,31
395,364	76,71
395,618	78,45
395,871	78,26
396,124	78,49
396,378	77,74
396,631	80,85
396,884	77,8
397,137	79,56
397,391	80,55
397,644	76,57
397,897	77,77
398,15	80,17
398,403	82,8
398,657	81,04
398,91	80,3
399,163	81,18
399,416	83,48
399,669	83,47
399,922	83,35
400,175	82,99
400,428	82,79
400,681	84,71
400,934	81,33
401,187	81,18
401,44	84,14
401,693	85,04
401,946	83,88
402,199	82,23
402,452	83,43
402,704	81,98
402,957	83,75
403,21	87,11
403,463	89,08
403,716	92,05
403,969	96,25
404,221	98,46
404,474	101,01
404,727	107,71
404,98	112,6
405,232	116,46
405,485	122,11
405,738	127,56
405,99	130,92
406,243	134,43
406,496	141,34
406,748	146,35
407,001	150,85
407,253	154,68
407,506	161,61
407,759	169,28
408,011	173,71
408,264	179,28
408,516	184,95
408,769	188,9
409,021	196,05
409,274	201,54
409,526	210,03
409,778	217,66
410,031	227,77
410,283	235,18
410,536	247,73
410,788	256,02
411,04	264,26
411,293	274,88
411,545	285,36
411,797	293,71
412,049	304,28
412,302	315,57
412,554	326,75
412,806	336,65
413,058	346,33
413,311	358,82
413,563	371,12
413,815	384,53
414,067	394,85
414,319	405,94
414,571	420,67
414,823	433,28
415,075	447,87
415,328	463,97
415,58	480,12
415,832	498,1
416,084	517,13
416,336	533,81
416,588	556,29
416,84	573,4
417,091	594,77
417,343	609,96
417,595	630,65
417,847	651,7
418,099	673,92
418,351	695,38
418,603	720,95
418,855	745,43
419,106	768,61
419,358	790,32
419,61	815,93
419,862	843,1
420,114	868,05
420,365	895,96
420,617	925,86
420,869	953,26
421,12	982,37
421,372	1012,31
421,624	1042,98
421,875	1078,69
422,127	1110,71
422,379	1144,76
422,63	1184,04
422,882	1218,85
423,133	1256,02
423,385	1297,15
423,636	1336,68
423,888	1378,22
424,139	1422,06
424,391	1459,96
424,642	1504,05
424,894	1548,51
425,145	1596,14
425,396	1642,63
425,648	1693,59
425,899	1743,81
426,151	1795,97
426,402	1849,6
426,653	1903,23
426,905	1956,42
427,156	2015,08
427,407	2073,04
427,658	2132,19
427,91	2189,11
428,161	2253,3
428,412	2313,5
428,663	2381,38
428,914	2450,1
429,166	2516,73
429,417	2590,6
429,668	2658,8
429,919	2728,74
430,17	2801,53
430,421	2873,79
430,672	2954,82
430,923	3036,13
431,174	3111,72
431,425	3196,36
431,676	3278,58
431,927	3363,24
432,178	3459,2
432,429	3549,45
432,68	3639,94
432,931	3736,94
433,182	3833,35
433,433	3926,66
433,683	4029,8
433,934	4128,88
434,185	4225,89
434,436	4332,19
434,687	4440,29
434,937	4550,83
435,188	4658,85
435,439	4770,71
435,69	4893,77
435,94	5011,93
436,191	5133,99
436,442	5255,09
436,692	5380,36
436,943	5511,51
437,194	5633,65
437,444	5766,35
437,695	5901,33
437,945	6048,13
438,196	6183,17
438,447	6320,44
438,697	6460,38
438,948	6608,27
439,198	6749,01
439,449	6895,23
439,699	7047,06
439,949	7191,13
440,2	7343,36
440,45	7505,09
440,701	7665,01
440,951	7825,39
441,201	7996,07
441,452	8156,27
441,702	8323,94
441,952	8501,66
442,203	8678,03
442,453	8854,93
442,703	9038,6
442,953	9225,6
443,204	9419,83
443,454	9605,28
443,704	9783,79
443,954	9981,38
444,204	10189,39
444,455	10386,2
444,705	10598,4
444,955	10806,86
445,205	11000,4
445,455	11217,18
445,705	11435,61
445,955	11652,58
446,205	11871,19
446,455	12090,3
446,705	12314,28
446,955	12540,65
447,205	12762,27
447,455	12989,39
447,705	13196,5
447,955	13424,05
448,205	13649,74
448,454	13877,91
448,704	14101,42
448,954	14310,11
449,204	14512,01
449,454	14728,94
449,704	14933,19
449,953	15135,56
450,203	15335,66
450,453	15534,99
450,703	15730,97
450,952	15897,62
451,202	16070,67
451,452	16245,2
451,701	16390,05
451,951	16534,96
452,201	16680,77
452,45	16806,54
452,7	16916,69
452,949	17052,43
453,199	17154,49
453,448	17233,26
453,698	17324,65
453,947	17388,69
454,197	17433,36
454,446	17471,08
454,696	17501,98
454,945	17526,03
455,195	17527,77
455,444	17538,41
455,693	17526,55
455,943	17472,73
456,192	17431,58
456,442	17369,98
456,691	17314,37
456,94	17246,69
457,189	17150,7
457,439	17060,2
457,688	16961,63
457,937	16850,04
458,186	16713,51
458,436	16570,83
458,685	16442,19
458,934	16292,18
459,183	16134,34
459,432	15992,86
459,681	15824,39
459,93	15648,75
460,179	15480,22
460,429	15319,64
460,678	15146,07
460,927	14966,73
461,176	14783,7
461,425	14587,65
461,674	14419,56
461,923	14259,77
462,172	14084,88
462,42	13902,3
462,669	13725,34
462,918	13545,32
463,167	13372,46
463,416	13191,87
463,665	13053,35
463,914	12877,2
464,162	12729,38
464,411	12560,83
464,66	12410,45
464,909	12267,1
465,158	12119,18
465,406	11963,5
465,655	11825,59
465,904	11690,3
466,152	11555,69
466,401	11424,94
466,65	11303,17
466,898	11181,1
467,147	11053,09
467,395	10936,59
467,644	10827,89
467,893	10700,69
468,141	10588,5
468,39	10460,8
468,638	10346,49
468,887	10237,9
469,135	10138,11
469,384	10024,92
469,632	9912,84
469,88	9810,24
470,129	9720,92
470,377	9621,32
470,626	9528,55
470,874	9435,86
471,122	9349,57
471,371	9241,3
471,619	9156,97
471,867	9064,8
472,115	8983,82
472,364	8903,61
472,612	8819,23
472,86	8731,44
473,108	8658,62
473,356	8575,66
473,605	8499,78
473,853	8429,68
474,101	8354,88
474,349	8280,53
474,597	8216,46
474,845	8149,89
475,093	8081,91
475,341	8011,98
475,589	7956,92
475,837	7894
476,085	7843,55
476,333	7789,5
476,581	7734,28
476,829	7684,64
477,077	7636,31
477,325	7589,43
477,573	7544,55
477,821	7498,64
478,069	7458,12
478,317	7426,15
478,564	7393,3
478,812	7357,05
479,06	7331,46
479,308	7298,06
479,555	7271,03
479,803	7252,54
480,051	7235,78
480,299	7218,02
480,546	7204,37
480,794	7184,61
481,042	7171,51
481,289	7161,87
481,537	7154,43
481,784	7147,8
482,032	7149,49
482,28	7147,35
482,527	7146,56
482,775	7151,83
483,022	7161,81
483,27	7167,66
483,517	7180,8
483,765	7196,23
484,012	7208,84
484,259	7226,78
484,507	7240,13
484,754	7261,21
485,002	7281,86
485,249	7297,76
485,496	7318,59
485,744	7344,45
485,991	7368,59
486,238	7393,26
486,486	7416,68
486,733	7446,64
486,98	7479
487,227	7507,35
487,474	7534,65
487,722	7566,33
487,969	7598,67
488,216	7633,78
488,463	7670,56
488,71	7708,59
488,957	7745,96
489,204	7781,44
489,451	7817,85
489,699	7855,78
489,946	7894,68
490,193	7934,84
490,44	7977,02
490,687	8016,44
490,934	8055,81
491,18	8095,57
491,427	8129,88
491,674	8179,63
491,921	8222,97
492,168	8272,15
492,415	8315,8
492,662	8365,83
492,909	8416,19
493,155	8464,23
493,402	8506,25
493,649	8549,49
493,896	8600,71
494,142	8654,4
494,389	8703,21
494,636	8747,96
494,883	8798,21
495,129	8850,69
495,376	8899,8
495,623	8952,25
495,869	9004,55
496,116	9058,54
496,362	9109,66
496,609	9166,55
496,855	9227,3
497,102	9283,34
497,348	9334,72
497,595	9390,23
497,841	9446,97
498,088	9498,71
498,334	9552,2
498,581	9603,4
498,827	9659,27
499,074	9714,32
499,32	9765,68
499,566	9827,33
499,813	9884,85
500,059	9936,22
500,305	9990,32
500,552	10042,22
500,798	10091,4
501,044	10150,25
501,29	10204,1
501,537	10256,21
501,783	10309,55
502,029	10361,59
502,275	10417,87
502,521	10472,82
502,767	10525,47
503,013	10577,92
503,26	10630,15
503,506	10677,74
503,752	10729,32
503,998	10779,11
504,244	10827,78
504,49	10866,56
504,736	10918,26
504,982	10965,02
505,228	11017,55
505,474	11065,58
505,72	11114,63
505,966	11162,48
506,211	11217,18
506,457	11258,56
506,703	11305,06
506,949	11345,92
507,195	11393,95
507,441	11429,15
507,686	11479,11
507,932	11520,6
508,178	11566,64
508,424	11612,55
508,669	11659,22
508,915	11702,71
509,161	11744,81
509,406	11786,36
509,652	11829,26
509,898	11873,89
510,143	11911,07
510,389	11948,23
510,634	11984,08
510,88	12021,87
511,125	12062,81
511,371	12101,84
511,616	12141,51
511,862	12175,2
512,107	12215,2
512,353	12245,09
512,598	12285,15
512,844	12315,64
513,089	12348,82
513,335	12384,17
513,58	12416,46
513,825	12451,13
514,071	12487,27
514,316	12519,15
514,561	12553,4
514,806	12572,79
515,052	12608,34
515,297	12634,25
515,542	12662,19
515,787	12689,85
516,033	12723,48
516,278	12745,79
516,523	12771,72
516,768	12798,61
517,013	12818,98
517,258	12842,56
517,503	12869,21
517,748	12894,89
517,993	12920,32
518,238	12943,2
518,483	12966,88
518,728	12987,81
518,973	13007,72
519,218	13027,82
519,463	13047,94
519,708	13065,88
519,953	13093,32
520,198	13106,4
520,443	13125,61
520,688	13149,13
520,933	13165,17
521,177	13181,79
521,422	13193,94
521,667	13212,44
521,912	13227,61
522,157	13242,51
522,401	13265,34
522,646	13280,44
522,891	13297,86
523,135	13316,19
523,38	13334,5
523,625	13347,29
523,869	13363,28
524,114	13381,45
524,358	13395,06
524,603	13412,15
524,848	13425
525,092	13435,78
525,337	13447,87
525,581	13460,27
525,826	13476,18
526,07	13491,5
526,315	13502,41
526,559	13515,55
526,803	13525,09
527,048	13539,77
527,292	13551,56
527,537	13557,89
527,781	13571
528,025	13575,06
528,269	13580,51
528,514	13590,89
528,758	13598,27
529,002	13605,43
529,247	13618,59
529,491	13626,12
529,735	13644,39
529,979	13650,67
530,223	13657,21
530,467	13658,18
530,712	13662,91
530,956	13665,4
531,2	13668,01
531,444	13672,45
531,688	13672,75
531,932	13671,93
532,176	13680,51
532,42	13682,22
532,664	13684,02
532,908	13686,8
533,152	13689,44
533,396	13689,84
533,64	13682,69
533,884	13687,04
534,128	13686,31
534,371	13693,34
534,615	13699,71
534,859	13697,79
535,103	13697,05
535,347	13700,92
535,59	13708,8
535,834	13712,26
536,078	13716,39
536,322	13718,68
536,565	13725,77
536,809	13722,65
537,053	13729,61
537,296	13724,9
537,54	13724,91
537,784	13728,85
538,027	13733,24
538,271	13729,47
538,514	13730,6
538,758	13730,92
539,001	13725,4
539,245	13730,35
539,488	13738,02
539,732	13731,87
539,975	13735,29
540,219	13736,93
540,462	13734,65
540,706	13736,45
540,949	13731,63
541,192	13735,49
541,436	13737,13
541,679	13740,66
541,922	13735,24
542,166	13722,53
542,409	13726,12
542,652	13726
542,895	13723,5
543,139	13719,93
543,382	13716,13
543,625	13709,03
543,868	13707,35
544,111	13702,78
544,354	13700,19
544,598	13694,46
544,841	13686,48
545,084	13680,95
545,327	13673,24
545,57	13666,37
545,813	13664,87
546,056	13656,96
546,299	13652,33
546,542	13655,09
546,785	13646,51
547,028	13640,02
547,271	13635,11
547,514	13624,9
547,756	13617,88
547,999	13613,53
548,242	13607,47
548,485	13601,24
548,728	13595,26
548,971	13584,63
549,213	13580,75
549,456	13568,87
549,699	13567,46
549,942	13560,38
550,184	13557,03
550,427	13548,53
550,67	13545,95
550,912	13532
551,155	13527,44
551,398	13522,81
551,64	13511,43
551,883	13503,97
552,125	13497,08
552,368	13491,62
552,61	13478,34
552,853	13469,67
553,095	13462,51
553,338	13451,76
553,58	13446,92
553,823	13442,52
554,065	13432,19
554,308	13424,05
554,55	13414,01
554,792	13402,12
555,035	13397,91
555,277	13386,72
555,519	13380,07
555,762	13364,14
556,004	13355,99
556,246	13344,49
556,488	13337,36
556,731	13322,5
556,973	13313,83
557,215	13301,92
557,457	13293,28
557,699	13278,13
557,941	13270,76
558,183	13254,05
558,426	13250,79
558,668	13235,7
558,91	13224,88
559,152	13214,61
559,394	13203,6
559,636	13192,28
559,878	13181,35
560,12	13174,78
560,362	13172,98
560,604	13166,72
560,845	13160,17
561,087	13146,68
561,329	13136,57
561,571	13127,29
561,813	13119,43
562,055	13108,65
562,297	13107,18
562,538	13104,08
562,78	13102,37
563,022	13100,54
563,264	13104,35
563,505	13105,63
563,747	13109,71
563,989	13107,8
564,23	13108,15
564,472	13116,21
564,714	13124,89
564,955	13131,91
565,197	13142,19
565,438	13146,14
565,68	13161,18
565,921	13169,24
566,163	13184,12
566,404	13190,76
566,646	13206,04
566,887	13221,09
567,129	13236,03
567,37	13249,4
567,612	13261,97
567,853	13272,52
568,094	13287,86
568,336	13299,26
568,577	13319,8
568,818	13330,44
569,06	13344,75
569,301	13356,83
569,542	13376,63
569,783	13391,44
570,025	13399,97
570,266	13412,76
570,507	13418,98
570,748	13422,31
570,989	13428,36
571,23	13429,9
571,472	13431,64
571,713	13433,44
571,954	13433,43
572,195	13422,9
572,436	13421,57
572,677	13411,6
572,918	13406,3
573,159	13393,17
573,4	13376,72
573,641	13359,99
573,882	13344,27
574,123	13323,54
574,364	13295,45
574,604	13277,5
574,845	13249,73
575,086	13230,22
575,327	13200,65
575,568	13174,24
575,809	13146,71
576,049	13112,23
576,29	13081,71
576,531	13051,39
576,771	13023,04
577,012	12986,51
577,253	12949,3
577,494	12914,8
577,734	12878,55
577,975	12840,62
578,215	12806,86
578,456	12770,83
578,697	12737,3
578,937	12706,87
579,178	12669,11
579,418	12631,46
579,659	12598,55
579,899	12559,52
580,14	12528,04
580,38	12491,51
580,62	12457,69
580,861	12434,02
581,101	12396,15
581,342	12368,32
581,582	12334,16
581,822	12305,25
582,063	12268,48
582,303	12238,24
582,543	12204,21
582,783	12175,58
583,024	12142,61
583,264	12113,07
583,504	12083,68
583,744	12056,83
583,984	12028,94
584,224	11997,26
584,465	11970,95
584,705	11943,49
584,945	11914,48
585,185	11886,54
585,425	11861,92
585,665	11828,03
585,905	11798,36
586,145	11771,9
586,385	11741,29
586,625	11717,67
586,865	11690,21
587,105	11660,82
587,345	11630,88
587,585	11604,54
587,824	11580,04
588,064	11555,02
588,304	11520,48
588,544	11502,15
588,784	11475,04
589,024	11451,02
589,263	11427,69
589,503	11404,84
589,743	11387,82
589,982	11367,2
590,222	11344,91
590,462	11325,53
590,701	11302,98
590,941	11290,39
591,181	11268,55
591,42	11253,3
591,66	11242,2
591,899	11229,1
592,139	11211,89
592,378	11198,24
592,618	11182,35
592,857	11170,09
593,097	11168,21
593,336	11161,05
593,576	11149,23
593,815	11140,36
594,055	11137,25
594,294	11132,61
594,533	11134,58
594,773	11133,82
595,012	11134,86
595,251	11133
595,491	11137,36
595,73	11145,1
595,969	11149,03
596,208	11155,6
596,447	11168,58
596,687	11173,05
596,926	11177,62
597,165	11175,35
597,404	11182,61
597,643	11189,61
597,882	11189,12
598,121	11198,15
598,36	11197,18
598,599	11203,81
598,838	11197,9
599,077	11198,04
599,316	11200,3
599,555	11203,01
599,794	11201,81
600,033	11200,81
600,272	11198,96
600,511	11189,86
600,75	11186,15
600,989	11183,32
601,228	11176,38
601,466	11159,41
601,705	11146,59
601,944	11134,31
602,183	11119,2
602,422	11097,53
602,66	11075,99
602,899	11050,82
603,138	11023,97
603,376	10996,08
603,615	10964,23
603,854	10923,71
604,092	10892,91
604,331	10862,61
604,569	10828,54
604,808	10790,87
605,047	10750,84
605,285	10708,34
605,524	10664,45
605,762	10623,13
606	10580,73
606,239	10540,31
606,477	10493,96
606,716	10437,88
606,954	10386,78
607,193	10333,09
607,431	10277,14
607,669	10222,2
607,908	10171,19
608,146	10114,1
608,384	10056,01
608,622	10002,96
608,861	9947,7
609,099	9893,93
609,337	9831,49
609,575	9775,25
609,813	9722,67
610,052	9668,05
610,29	9608,43
610,528	9553,15
610,766	9497,14
611,004	9443,46
611,242	9394,41
611,48	9342,51
611,718	9288,12
611,956	9239,58
612,194	9186,73
612,432	9133,76
612,67	9088,4
612,908	9039,96
613,146	8990,35
613,384	8938,27
613,621	8890,16
613,859	8840,86
614,097	8793,16
614,335	8749,03
614,573	8706,22
614,811	8666,07
615,048	8622,63
615,286	8579,73
615,524	8538,03
615,761	8493,56
615,999	8450,14
616,237	8408,3
616,474	8365,56
616,712	8328,66
616,95	8285,75
617,187	8241,8
617,425	8202,92
617,662	8163
617,9	8122,46
618,137	8082,45
618,375	8040,64
618,612	8000,5
618,85	7959,26
619,087	7922,24
619,325	7881
619,562	7841,03
619,799	7804,25
620,037	7763,8
620,274	7723,44
620,511	7687,6
620,749	7651,94
620,986	7613,79
621,223	7572,09
621,461	7540,67
621,698	7506,29
621,935	7470,67
622,172	7431,17
622,409	7399,13
622,647	7360,92
622,884	7325,33
623,121	7292,23
623,358	7254,28
623,595	7219,43
623,832	7185,55
624,069	7146,98
624,306	7114,95
624,543	7081,74
624,78	7047,31
625,017	7014,62
625,254	6981,83
625,491	6945,93
625,728	6917,02
625,965	6883,5
626,202	6848,66
626,438	6810,32
626,675	6779,19
626,912	6747,41
627,149	6714,9
627,386	6683,59
627,622	6651,53
627,859	6614,52
628,096	6578,85
628,333	6541,25
628,569	6511,89
628,806	6477,4
629,043	6444,43
629,279	6412,15
629,516	6384,65
629,752	6347,42
629,989	6319,07
630,225	6284,95
630,462	6251,99
630,699	6222,25
630,935	6190,82
631,171	6157,77
631,408	6128,79
631,644	6093,8
631,881	6059,38
632,117	6027,14
632,354	5996,72
632,59	5963,45
632,826	5935,25
633,063	5903,55
633,299	5870,61
633,535	5839,16
633,771	5807,16
634,008	5776,72
634,244	5745,46
634,48	5714,27
634,716	5683,8
634,953	5651,58
635,189	5620,5
635,425	5594,56
635,661	5570,29
635,897	5538,72
636,133	5508,51
636,369	5475,13
636,605	5443,59
636,841	5408,65
637,077	5380,24
637,313	5348,24
637,549	5318,46
637,785	5288,51
638,021	5257,9
638,257	5226,96
638,493	5199,92
638,729	5170,37
638,965	5144,69
639,2	5116,56
639,436	5087,33
639,672	5056,69
639,908	5027,66
640,144	5001,72
640,379	4974,39
640,615	4945,09
640,851	4918,58
641,086	4895,17
641,322	4865,88
641,558	4836,45
641,793	4807,37
642,029	4778,52
642,264	4750,13
642,5	4722,09
642,736	4687,52
642,971	4661,25
643,207	4632,37
643,442	4605,9
643,678	4578,46
643,913	4551,21
644,148	4526,05
644,384	4502,79
644,619	4475,42
644,855	4451,64
645,09	4425,52
645,325	4400,22
645,561	4376,23
645,796	4347,49
646,031	4323,21
646,266	4293,38
646,502	4266,03
646,737	4241,21
646,972	4216,47
647,207	4192,04
647,442	4162,92
647,678	4133,25
647,913	4109,44
648,148	4085,49
648,383	4055,83
648,618	4031,59
648,853	4006,26
649,088	3984,22
649,323	3960,77
649,558	3938,52
649,793	3915,06
650,028	3892,05
650,263	3863,7
650,498	3843,09
650,733	3816,45
650,968	3791,69
651,202	3769,67
651,437	3744,14
651,672	3715,14
651,907	3692,44
652,142	3669,39
652,376	3649,07
652,611	3626,85
652,846	3601,02
653,081	3578,38
653,315	3552,55
653,55	3530,99
653,785	3507,97
654,019	3486,43
654,254	3461,42
654,488	3439,7
654,723	3415,22
654,958	3393,26
655,192	3367,48
655,427	3343,76
655,661	3324,93
655,896	3303,26
656,13	3284,23
656,364	3258,69
656,599	3234,89
656,833	3221,01
657,068	3203,11
657,302	3183,4
657,536	3159,67
657,771	3138,72
658,005	3118,08
658,239	3097,97
658,474	3076,62
658,708	3057,92
658,942	3037,88
659,176	3013,7
659,41	2989,27
659,645	2964,12
659,879	2943,24
660,113	2923,34
660,347	2902,88
660,581	2883,32
660,815	2862,65
661,049	2844,55
661,283	2823
661,517	2802,13
661,751	2781,79
661,985	2762,46
662,219	2742,87
662,453	2725,74
662,687	2707,3
662,921	2685,01
663,155	2667,29
663,389	2644,48
663,622	2626,28
663,856	2611,42
664,09	2586,73
664,324	2567,05
664,558	2548,91
664,791	2531,88
665,025	2513,54
665,259	2496,29
665,492	2480,99
665,726	2465,89
665,96	2448,96
666,193	2431,18
666,427	2416,36
666,661	2400,23
666,894	2384,86
667,128	2366,99
667,361	2352,3
667,595	2334,34
667,828	2318,2
668,062	2302,14
668,295	2284,24
668,529	2267,75
668,762	2251,96
668,995	2235,28
669,229	2222,15
669,462	2206,62
669,695	2192,13
669,929	2174,09
670,162	2158,46
670,395	2139,84
670,629	2125,91
670,862	2110,89
671,095	2091,53
671,328	2075,56
671,561	2057,36
671,795	2041,74
672,028	2027,09
672,261	2012,99
672,494	2000,41
672,727	1983,11
672,96	1968,12
673,193	1951,73
673,426	1940,88
673,659	1926,47
673,892	1910,93
674,125	1895,89
674,358	1881,57
674,591	1865,48
674,824	1851,82
675,057	1836,44
675,29	1821,76
675,523	1810,17
675,755	1797,89
675,988	1785,32
676,221	1773,72
676,454	1759,78
676,687	1749,9
676,919	1735,2
677,152	1724,05
677,385	1713,02
677,617	1704,1
677,85	1690,64
678,083	1679,04
678,315	1667,6
678,548	1652,48
678,78	1640,74
679,013	1629,64
679,246	1617,31
679,478	1605,26
679,711	1589,87
679,943	1579,53
680,175	1564,45
680,408	1557,5
680,64	1540,97
680,873	1530,14
681,105	1519,83
681,338	1510,52
681,57	1499,46
681,802	1488,96
682,034	1477,21
682,267	1469,27
682,499	1460,02
682,731	1445,59
682,964	1434
683,196	1422,94
683,428	1409,8
683,66	1396,7
683,892	1386,82
684,124	1377,3
684,356	1368,72
684,589	1358,14
684,821	1343,65
685,053	1333,24
685,285	1321,97
685,517	1313,82
685,749	1305,24
685,981	1296,03
686,213	1286,67
686,445	1280,22
686,676	1267,45
686,908	1257,45
687,14	1245,4
687,372	1237,17
687,604	1222,73
687,836	1216,02
688,068	1207,69
688,299	1198,48
688,531	1187,92
688,763	1182,58
688,995	1172,13
689,226	1165,7
689,458	1152,84
689,69	1143,54
689,921	1135,41
690,153	1126,36
690,384	1116,52
690,616	1106,99
690,848	1099,42
691,079	1087,9
691,311	1077,34
691,542	1065,36
691,774	1054,87
692,005	1048,83
692,237	1044,18
692,468	1032,94
692,699	1023,5
692,931	1015,28
693,162	1006,25
693,393	996,52
693,625	985,22
693,856	977,87
694,087	970,57
694,319	964,92
694,55	956,12
694,781	947,94
695,012	937,98
695,243	928,41
695,475	920,8
695,706	912,99
695,937	902,66
696,168	894,41
696,399	885,16
696,63	879,59
696,861	871,05
697,092	868,23
697,323	861,12
697,554	855,51
697,785	849,5
698,016	843,75
698,247	836,06
698,478	831,14
698,709	825,09
698,94	820,47
699,171	813,99
699,401	802,29
699,632	797,51
699,863	788,62
700,094	781,71
700,325	776,35
700,555	769,87
700,786	765,42
701,017	759,95
701,247	753,68
701,478	746,31
701,709	740,8
701,939	734,39
702,17	730,71
702,401	726,75
702,631	721,13
702,862	714,05
703,092	706,21
703,323	702,92
703,553	698,82
703,784	692,37
704,014	686,75
704,244	676,56
704,475	670,62
704,705	665,76
704,936	661,49
705,166	654,78
705,396	649,38
705,627	643,02
705,857	638,48
706,087	633,02
706,317	624,67
706,548	619,21
706,778	615,12
707,008	611,29
707,238	606,26
707,468	599,84
707,698	593,9
707,928	588,57
708,158	582,79
708,389	577,13
708,619	571,3
708,849	564,16
709,079	560,74
709,309	552,95
709,539	544,77
709,768	539,31
709,998	537,49
710,228	531,69
710,458	526,78
710,688	519,8
710,918	515,91
711,148	510,45
711,378	506,44
711,607	501,59
711,837	497,19
712,067	491,85
712,297	487,2
712,526	483,16
712,756	481,27
712,986	475,32
713,215	468,21
713,445	464,44
713,674	462,71
713,904	458,75
714,134	456,4
714,363	452,12
714,593	448,23
714,822	443,28
715,052	439,04
715,281	435,95
715,511	431,17
715,74	427,75
715,969	424,63
716,199	418,37
716,428	416,14
716,657	412,58
716,887	411,33
717,116	404,7
717,345	402,71
717,575	397,6
717,804	393,87
718,033	389,56
718,262	386,32
718,492	383,4
718,721	380,42
718,95	376,6
719,179	371,11
719,408	368,86
719,637	362,32
719,866	357,24
720,095	355,12
720,324	351,76
720,553	345,79
720,782	340,78
721,011	337,62
721,24	332,66
721,469	328,26
721,698	324,95
721,927	322,94
722,156	318,43
722,385	313,26
722,613	313,1
722,842	310,83
723,071	310,68
723,3	310,8
723,529	307,67
723,757	305,93
723,986	299,97
724,215	296,58
724,443	295,47
724,672	295,34
724,901	293,96
725,129	292,74
725,358	293,15
725,586	288,55
725,815	285,43
726,043	282,3
726,272	280,13
726,5	276,13
726,729	274,63
726,957	270,37
727,186	266,25
727,414	266,07
727,642	265,56
727,871	264,45
728,099	259,74
728,327	257,81
728,556	259,1
728,784	257,25
729,012	254,04
729,241	254,52
729,469	252,41
729,697	248,15
729,925	246,89
730,153	243,5
730,381	240,97
730,61	237,52
730,838	233,4
731,066	232,94
731,294	231,55
731,522	227,66
731,75	222,9
731,978	221,51
732,206	219,29
732,434	216,06
732,662	215,99
732,89	213,68
733,118	210,88
733,346	209,29
733,573	208,48
733,801	208,15
734,029	211,96
734,257	210,65
734,485	211,72
734,712	211,89
734,94	208,6
735,168	209,64
735,396	207,67
735,623	204,17
735,851	202,79
736,078	201,23
736,306	200,37
736,534	198,92
736,761	199,77
736,989	195,53
737,216	192,61
737,444	189,27
737,671	190,09
737,899	192,13
738,126	189,19
738,354	186,99
738,581	186,72
738,809	186,48
739,036	183,1
739,263	181,31
739,491	177,69
739,718	174,64
739,945	177,14
740,173	176,67
740,4	174,31
740,627	171,69
740,854	170,18
741,081	165,18
741,309	162,53
741,536	157,19
741,763	155,46
741,99	155,59
742,217	154,19
742,444	152,14
742,671	150,34
742,898	149,33
743,125	147,61
743,352	143,2
743,579	141,55
743,806	138,96
744,033	141,8
744,26	141,78
744,487	140,84
744,714	139,58
744,941	137,22
745,167	138,43
745,394	137,15
745,621	135,32
745,848	133,88
746,075	133,44
746,301	134,72
746,528	137,66
746,755	135,52
746,981	133,28
747,208	134,1
747,435	135,27
747,661	134,67
747,888	134,11
748,114	132,15
748,341	134,07
748,567	135,05
748,794	131,69
749,02	128,95
749,247	126,35
749,473	126,37
749,7	126,53
749,926	124,75
750,152	127,69
750,379	127,78
750,605	128,84
750,831	126,64
751,058	122,48
751,284	119,59
751,51	120,96
751,737	120,37
751,963	118,78
752,189	117,13
752,415	116,62
752,641	115,09
752,867	113,12
753,094	112,02
753,32	110,38
753,546	106,99
753,772	109,73
753,998	107,46
754,224	106,72
754,45	106,66
754,676	105,78
754,902	104,93
755,128	104,5
755,354	102,62
755,579	102,21
755,805	103,41
756,031	102,24
756,257	100,54
756,483	98,02
756,709	96,27
756,934	95,93
757,16	93,07
757,386	91,59
757,612	88,04
757,837	87,24
758,063	89,35
758,289	90,71
758,514	88,44
758,74	85,02
758,965	83,01
759,191	82,15
759,416	82,55
759,642	83,27
759,868	82,74
760,093	84,92
760,318	82,93
760,544	82,56
760,769	79,75
760,995	79,32
761,22	77,2
761,445	77
761,671	77,84
761,896	78,75
762,121	76,55
762,347	74,73
762,572	71,79
762,797	70,37
763,022	70,86
763,248	74,14
763,473	74,59
763,698	73,04
763,923	73,17
764,148	72,06
764,373	71,43
764,598	73
764,823	73,19
765,048	69,07
765,273	66,7
765,498	64,89
765,723	64,33
765,948	64,76
766,173	64,41
766,398	64,76
766,623	61,57
766,848	60,51
767,073	57,6
767,298	56,28
767,522	55,1
767,747	55,45
767,972	54,03
768,197	53,66
768,421	52,02
768,646	48,52
768,871	45,52
769,095	46,58
769,32	47,59
769,545	46,55
769,769	47,73
769,994	48,3
770,218	44,51
770,443	44,84
770,667	45,1
770,892	44,92
771,116	43,43
771,341	44,43
771,565	43,41
771,79	43,74
772,014	43,2
772,238	41,29
772,463	42,87
772,687	43,62
772,911	43,04
773,136	40,89
773,36	41
773,584	42,61
773,808	41,83
774,033	40,91
774,257	42,08
774,481	41,02
774,705	40,83
774,929	39,49
775,153	40,27
775,377	40,56
775,602	41,5
775,826	40,81
776,05	42,42
776,274	41,32
776,498	41,59
776,722	40,12
776,945	39,58
777,169	39,04
777,393	37,81
777,617	35,55
777,841	35,84
778,065	35,82
778,289	35,19
778,512	34,86
778,736	34,33
778,96	34,36
779,184	37,27
779,407	37,36
779,631	36,61
779,855	35,14
780,078	36,68
780,302	34,61
780,526	33,95
780,749	33,61
780,973	35,61
781,196	35,2
781,42	34,53
781,643	33,99
781,867	35,61
782,09	32,67
782,314	31,87
782,537	30,42
782,76	30,3
782,984	31,03
783,207	31,74
783,431	31,07
783,654	30,2
783,877	27,92
784,1	27,74
784,324	26,83
784,547	26,52
784,77	22,84
784,993	21,73
785,216	20,21
785,44	19,84
785,663	18,37
785,886	21,96
786,109	20,51
786,332	19,64
786,555	19,75
786,778	20,72
787,001	19,58
787,224	19,28
787,447	18,48
787,67	19,27
787,893	19,2
788,116	18,84
788,339	18,84
788,561	18,59
788,784	15,41
789,007	14,61
789,23	13,61
789,453	12,55
789,675	11,13
789,898	8,41
790,121	5,42
790,344	5,84
790,566	6,74
790,789	8,15
791,012	8,51
791,234	10,69
791,457	14,41
791,679	15,42
791,902	15,93
792,124	14,61
792,347	12,46
792,569	12,82
792,792	8,1
793,014	11,08
793,237	11,69
793,459	13,23
793,681	13,53
793,904	14,04
794,126	14,42
794,348	13,78
794,571	14,96
794,793	11,19
795,015	10,69
795,237	10,78
795,46	11,63
795,682	13,24
795,904	15,08
796,126	13,03
796,348	14,61
796,57	17,65
796,792	18,22
797,014	22,31
797,237	23,79
797,459	25,5
797,681	25,32
797,903	23,34
798,124	22,16
798,346	31,75
798,568	32,11
798,79	35,02
799,012	37,82
799,234	39,43
799,456	40,73
799,678	42,82
799,899	39,89
800,121	37,02
800,343	34,69
800,565	34,55
800,786	33,21
801,008	34,04
801,23	34,64
801,451	35,14
801,673	35,61
801,895	34,64
802,116	35,07
802,338	35,47
802,559	33,95
802,781	33
803,002	36,09
803,224	37,71
803,445	35,5
803,667	36,15
803,888	34,37
804,109	34,28
804,331	32,13
804,552	31,55
804,773	34,37
804,995	33,21
805,216	21,02
805,437	19,2
805,658	15,97
805,88	13,58
806,101	14,81
806,322	13,89
806,543	12,68
806,764	10,35
806,985	12,41
807,207	13,45
807,428	13,62
807,649	10,91
807,87	9,8
808,091	10,22
808,312	10,27
808,533	14,98
808,754	16,83
808,975	16,46
809,195	17,4
809,416	17,97
809,637	17,32
809,858	14,75
810,079	12,06
810,3	13,94
810,52	13,69
810,741	11,14
810,962	9,08
811,183	9,33
811,403	11,31
811,624	9,06
811,845	9,91
812,065	11,21
812,286	12,01
812,506	12,81
812,727	13,12
812,948	12,29
813,168	13,56
813,389	12,71
813,609	14,98
813,83	14,3
814,05	12,91
814,27	12,34
814,491	16,48
814,711	14,92
814,931	12,41
815,152	11,99
815,372	9,45
815,592	9,73
815,813	7,78
816,033	6,43
816,253	7,53
816,473	6,41
816,694	7,31
816,914	9,21
817,134	7,42
817,354	5,15
817,574	6,24
817,794	6,53
818,014	4,84
818,234	3,91
818,454	3,52
818,674	1,81
818,894	-0,56
819,114	1,47
819,334	2,06
819,554	5,19
819,774	6,44
819,994	4,39
820,214	5,01
820,433	4,52
820,653	3,16
820,873	5,05
821,093	6,26
821,312	4,34
821,532	6,48
821,752	9,15
821,972	7,62
822,191	7,9
822,411	5,42
822,63	6,81
822,85	6,36
823,07	4,92
823,289	5,96
823,509	5,08
823,728	6,24
823,948	5
824,167	4,6
824,387	3,97
824,606	4,39
824,825	4,26
825,045	3,54
825,264	3,78
825,483	6,65
825,703	8,26
825,922	6,27
826,141	4,75
826,361	3,71
826,58	1,8
826,799	0,03
827,018	0,5
827,237	1,16
827,456	4,26
827,676	4,76
827,895	4,15
828,114	5,48
828,333	5,16
828,552	4,37
828,771	4,16
828,99	1,62
829,209	2,49
829,428	3,93
829,647	3,2
829,866	3,81
830,084	3,59
830,303	3,62
830,522	2,47
830,741	3,4
830,96	4,49
831,179	5,71
831,397	5,14
831,616	4,89
831,835	5,46
832,053	6,26
832,272	5,42
832,491	5,84
832,709	5,19
832,928	5,88
833,147	4,62
833,365	4,95
833,584	7,89
833,802	9,3
834,021	9,29
834,239	9,28
834,458	7,79
834,676	4,68
834,894	3,63
835,113	2,19
835,331	2,04
835,55	1,25
835,768	2,31
835,986	3,51
836,204	2,42
836,423	3,98
836,641	1,82
836,859	0,9
837,077	1,49
837,296	0,84
837,514	0,87
837,732	-0,36
837,95	-1,42
838,168	0,9
838,386	-0,3
838,604	0,8
838,822	1,38
839,04	-0,14
839,258	0,18
839,476	1,76
839,694	1,97
839,912	1,06
840,13	0,64
840,348	2,82
840,566	0,87
840,783	2,59
841,001	0,75
841,219	2,3
841,437	4,43
841,655	5,83
841,872	6,73
842,09	6,2
842,308	8,33
842,525	9,31
842,743	9,28
842,961	9,3
843,178	7,43
843,396	12,28
843,613	13,81
843,831	15,6
844,048	15,82
844,266	15,99
844,483	16,33
844,701	14,74
844,918	13,46
845,136	14,8
845,353	13,3
845,57	13,79
845,788	17,49
846,005	14,79
846,222	14,66
846,439	15,61
846,657	15,49
846,874	16,12
847,091	12,58
847,308	13,66
847,526	11,3
847,743	11,17
847,96	8,29
848,177	7,38
848,394	5,38
848,611	3,99
848,828	3,1
849,045	2,7
849,262	2,21
849,479	1,2
849,696	-0,45
849,913	-0,75
850,13	-5,5
850,347	-4,1
850,564	-5,13
850,78	-5,93
850,997	-7,79
851,214	-8,11
851,431	-6,89
851,647	-9,19
851,864	-8,18
852,081	-6,87
852,298	-11,39
852,514	-13,24
852,731	-11,08
852,948	-10,3
853,164	-9,96
853,381	-10,15
853,597	-11,58
853,814	-11,7
854,03	-15,47
854,247	-13,77
854,463	-14,55
854,68	-14,17
854,896	-12,32
855,113	-11,33
855,329	-9,73
855,545	-7,48
855,762	-8,25
855,978	-10,08
856,194	-11,52
856,411	-8,54
856,627	-7,5
856,843	-6,53
857,059	-4,96
857,275	-7,67
857,492	-6,76
857,708	-3,62
857,924	-1,75
858,14	1,55
858,356	1,27
858,572	-0,01
858,788	-2,23
859,004	1,01
859,22	-0,13
859,436	-0,07
859,652	-1,05
859,868	-2,74
860,084	-3,81
860,3	-2,55
860,516	-2,09
860,731	-0,18
860,947	-2,67
861,163	-0,33
861,379	1,05
861,595	1,31
861,81	1,99
862,026	1,67
862,242	1,23
862,457	1,73
862,673	2,92
862,889	2,95
863,104	1,93
863,32	2,45
863,535	3,88
863,751	0,13
863,966	4,2
864,182	4,39
864,397	3,16
864,613	0,88
864,828	-2,31
865,044	-0,51
865,259	1,22
865,474	0,86
865,69	0,97
865,905	1,07
866,12	-0,95
866,336	-1,94
866,551	-0,39
866,766	1,27
866,981	0,16
867,196	-0,11
867,412	0,96
867,627	1,41
867,842	-0,06
868,057	0,63
868,272	0,4
868,487	-1,58
868,702	-2,95
868,917	-2,85
869,132	-2,81
869,347	-3,19
869,562	-2,57
869,777	-1,78
869,992	-2,73
870,207	-4,04
870,422	-3,69
870,636	-5,14
870,851	-6,85
871,066	-9,12
871,281	-8,1
871,495	-8,79
871,71	-6,97
871,925	-9,92
872,14	-10,75
872,354	-11,99
872,569	-12,88
872,783	-11,43
872,998	-10,44
873,213	-10,77
873,427	-9,87
873,642	-9,96
873,856	-10,1
874,071	-10,86
874,285	-11,79
874,5	-12,22
874,714	-15,59
874,928	-16,83
875,143	-16,2
875,357	-15,37
875,571	-17,62
875,786	-17,53
876	-15,02
876,214	-13,41
876,429	-16,6
876,643	-16,25
876,857	-14,46
877,071	-13,61
877,285	-14,51
877,499	-16,17
877,714	-12,94
877,928	-12,16
878,142	-14,09
878,356	-14,94
878,57	-13,19
878,784	-10,63
878,998	-10,9
879,212	-8,06
879,426	-9,18
879,639	-8,19
879,853	-9,43
880,067	-9,06
880,281	-8,77
880,495	-6,79
880,709	-5,5
880,922	-4,81
881,136	-3,16
881,35	-0,16
881,564	0,95
881,777	-0,83
881,991	-1,01
882,205	2,99
882,418	2,33
882,632	-0,18
882,845	-1,28
883,059	0,26
883,273	-0,36
883,486	-1,6
883,7	-0,52
883,913	-0,53
884,126	3,31
884,34	1,7
884,553	0,61
884,767	4,97
884,98	3,21
885,193	1,95
885,407	0,99
885,62	2,09
885,833	0,45
886,046	1,32
886,26	0,07
886,473	-0,46
886,686	-0,82
886,899	1,5
887,112	0,41
887,326	-1,16
887,539	-0,41
887,752	-0,54
887,965	-3,77
888,178	-3,16
888,391	-2,29
888,604	-1,43
888,817	-3,99
889,03	-2,43
889,243	-2,9
889,455	-4,7
889,668	-4,38
889,881	-1,01
890,094	-2,97
890,307	-4,44
890,52	-2,73
890,732	-4,16
890,945	-4,75
891,158	-4,93
891,37	-7,15
891,583	-6,07
891,796	-3,33
892,008	-4,04
892,221	-4,28
892,434	-6,62
892,646	-6,74
892,859	-8,06
893,071	-6,35
893,284	-5,18
893,496	-7,62
893,709	-8,46
893,921	-6,82
894,133	-6,78
894,346	-7,84
894,558	-6,25
894,771	-7,31
894,983	-4,64
895,195	-3,75
895,407	-4,15
895,62	-6,78
895,832	-5,86
896,044	-4,15
896,256	-4,56
896,468	-7,03
896,681	-3,12
896,893	-2,55
897,105	-3,69
897,317	-3,76
897,529	-2,28
897,741	-1,73
897,953	0,83
898,165	0,04
898,377	-2,04
898,589	-1,88
898,801	-2,18
899,013	0,43
899,224	2,49
899,436	4,75
899,648	3,71
899,86	1,42
900,072	4,14
900,283	5,32
900,495	5,43
900,707	6,01
900,919	4,49
901,13	4,84
901,342	2,74
901,554	1,41
901,765	1,02
901,977	-0,08
902,188	0,71
902,4	0,38
902,611	-0,63
902,823	-1,61
903,034	-3,4
903,246	-6,52
903,457	-7,76
903,669	-9,2
903,88	-10,31
904,091	-11,16
904,303	-10,6
904,514	-12,01
904,725	-10,81
904,936	-9,24
905,148	-7,73
905,359	-5,59
905,57	-5,48
905,781	-7,19
905,992	-8,65
906,204	-8,18
906,415	-7,05
906,626	-8,89
906,837	-6,46
907,048	-6,76
907,259	-7,94
907,47	-9,14
907,681	-10,06
907,892	-7,14
908,103	-8,25
908,314	-9,6
908,525	-6,65
908,735	-6,8
908,946	-8,14
909,157	-9,36
909,368	-7,97
909,579	-7,07
909,789	-7,93
910	-8,67
910,211	-6,5
910,421	-4,79
910,632	-4,97
910,843	-7,08
911,053	-4,47
911,264	-3,07
911,475	-4,36
911,685	-4,79
911,896	-4,67
912,106	-4,73
912,317	-6,26
912,527	-3,58
912,737	-3,37
912,948	-3,19
913,158	-2,22
913,369	-5,38
913,579	-3,87
913,789	-2,87
914	0,29
914,21	1,62
914,42	1,25
914,63	1,93
914,841	1,74
915,051	2,3
915,261	2,51
915,471	5,76
915,681	6,96
915,891	7,07
916,101	7,47
916,311	9,11
916,521	10,33
916,731	10,7
916,941	11,8
917,151	11,25
917,361	13,7
917,571	10,27
917,781	9,02
917,991	6,31
918,201	5,76
918,411	3,31
918,621	1,83
918,83	3,03
919,04	0,32
919,25	0,97
919,46	2,33
919,669	-0,69
919,879	-1,45
920,089	-2,72
920,298	-4,02
920,508	-3,92
920,717	-4,41
920,927	-5,15
921,136	-5,35
921,346	-6,37
921,555	-8,32
921,765	-8,87
921,974	-11,41
922,184	-12,99
922,393	-12,54
922,603	-13,69
922,812	-13,31
923,021	-13,95
923,23	-15,02
923,44	-18,1
923,649	-17,11
923,858	-17,93
924,067	-18,14
924,277	-20,16
924,486	-16,53
924,695	-17,89
924,904	-16,89
925,113	-15,11
925,322	-13,77
925,531	-12,64
925,74	-14,73
925,949	-16,72
926,158	-14,43
926,367	-13,51
926,576	-13,26
926,785	-14,66
926,994	-15,97
927,203	-14,68
927,412	-16,01
927,621	-16,77
927,83	-13,51
928,038	-14,97
928,247	-14,87
928,456	-14,04
928,665	-12,54
928,873	-11,62
929,082	-9,56
929,291	-8,09
929,499	-8,08
929,708	-9,38
929,916	-8,63
930,125	-9,04
930,333	-9,51
930,542	-5,91
930,75	-3,36
930,959	-4,04
931,167	-2,71
931,376	-2,87
931,584	-2,9
931,793	-4,05
932,001	-4,07
932,209	-4,55
932,418	-6,22
932,626	-8,36
932,834	-10,2
933,042	-13,01
933,251	-10,77
933,459	-10,32
933,667	-11,24
933,875	-11,04
934,083	-8,96
934,291	-10,1
934,499	-7,5
934,707	-7,42
934,915	-7,72
935,123	-7,2
935,331	-8,93
935,539	-9,82
935,747	-12,45
935,955	-12,02
936,163	-11,63
936,371	-11,56
936,579	-11,6
936,787	-11,1
936,995	-13,5
937,202	-15,32
937,41	-14,6
937,618	-15,24
937,826	-15,16
938,033	-18,13
938,241	-17,54
938,449	-16,78
938,656	-14,97
938,864	-14,81
939,071	-14,37
939,279	-11,8
939,486	-9,14
939,694	-9,55
939,901	-11,18
940,109	-10,04
940,316	-9,81
940,524	-12,08
940,731	-14,22
940,939	-14,81
941,146	-14,12
941,353	-14,46
941,561	-14,91
941,768	-14,57
941,975	-14,94
942,182	-14,4
942,39	-13,79
942,597	-10,35
942,804	-10,23
943,011	-10,59
943,218	-9,96
943,425	-9,73
943,632	-9,48
943,839	-11,1
944,046	-11,47
944,253	-10,92
944,46	-10,43
944,667	-8,74
944,874	-8,51
945,081	-6,48
945,288	-4,24
945,495	-1,57
945,702	-1,39
945,909	-3,15
946,115	-1,99
946,322	-2,39
946,529	-4,45
946,736	-3,92
946,942	-1,58
947,149	-1,49
947,356	-2,13
947,562	-4,73
947,769	-5,93
947,976	-5,28
948,182	-5,38
948,389	-6,29
948,595	-6,64
948,802	-6,36
949,008	-8,6
949,215	-6,53
949,421	-6,38
949,628	-7,9
949,834	-8,08
950,04	-9,93
950,247	-6,08
950,453	-4,87
950,659	-6,36
950,865	-4,95
951,072	-9,35
951,278	-8,2
951,484	-10,7
951,69	-13,94
951,896	-15,29
952,103	-17,1
952,309	-15,4
952,515	-17,06
952,721	-14,19
952,927	-12,87
953,133	-13,75
953,339	-15,25
953,545	-14,72
953,751	-14,63
953,957	-11,08
954,163	-11,12
954,369	-11,41
954,574	-12,62
954,78	-12,2
954,986	-10,06
955,192	-9,04
955,398	-10,96
955,603	-14,56
955,809	-13,96
956,015	-13,71
956,22	-13,54
956,426	-11,1
956,632	-15,16
956,837	-14,98
957,043	-15,05
957,248	-14,23
957,454	-13,34
957,66	-15,34
957,865	-14,65
958,07	-12,71
958,276	-14,65
958,481	-15,3
958,687	-16,46
958,892	-14,62
959,097	-15,56
959,303	-16,36
959,508	-16,59
959,713	-17,3
959,919	-17,9
960,124	-18,95
960,329	-20,21
960,534	-18,24
960,739	-16,73
960,945	-14,71
961,15	-15,26
961,355	-16,75
961,56	-20,57
961,765	-20,9
961,97	-20,1
962,175	-18,48
962,38	-20,75
962,585	-19,52
962,79	-20,57
962,995	-20,57
963,2	-21,74
963,404	-20,55
963,609	-22,86
963,814	-23,04
964,019	-24,68
964,224	-25,81
964,428	-24,45
964,633	-22,81
964,838	-20,55
965,042	-20,42
965,247	-23,03
965,452	-23,14
965,656	-21,75
965,861	-21,18
966,066	-21,67
966,27	-19
966,475	-15,81
966,679	-18,71
966,884	-17,88
967,088	-20,59
967,292	-21,16
967,497	-19,9
967,701	-21,08
967,906	-18,77
968,11	-15,67
968,314	-12,31
968,518	-13,76
968,723	-10,73
968,927	-11
969,131	-10,09
969,335	-7,6
969,539	-8,07
969,744	-7,42
969,948	-5,27
970,152	-5,32
970,356	-4,23
970,56	-5,01
970,764	-6,38
970,968	-5,3
971,172	-6,07
971,376	-4,91
971,58	-3,69
971,784	-2,14
971,988	-4,1
972,192	-1,16
972,395	-0,45
972,599	-2,32
972,803	-2,76
973,007	-0,3
973,21	-0,77
973,414	-1,03
973,618	-1,73
973,822	-2,8
974,025	-1,81
974,229	-2,25
974,432	-4,72
974,636	-7,6
974,84	-7,3
975,043	-7,26
975,247	-8,41
975,45	-9,88
975,654	-9,75
975,857	-8,05
976,06	-9,7
976,264	-12,65
976,467	-10,85
976,671	-10,35
976,874	-8,89
977,077	-9,64
977,28	-9,49
977,484	-11,8
977,687	-11,32
977,89	-9,48
978,093	-10,95
978,297	-10,3
978,5	-12,67
978,703	-12,62
978,906	-12,14
979,109	-14,25
979,312	-14,25
979,515	-15,18
979,718	-14,62
979,921	-14,25
980,124	-15,94
980,327	-15,78
980,53	-15,54
980,733	-14,74
980,936	-11,76
981,138	-12,8
981,341	-13,27
981,544	-14,19
981,747	-14
981,949	-14,78
982,152	-14,59
982,355	-14,17
982,558	-9,14
982,76	-11,69
982,963	-13,43
983,165	-14,32
983,368	-13,37
983,571	-14,12
983,773	-10,15
983,976	-11,99
984,178	-11,5
984,381	-11,12
984,583	-12,08
984,785	-12,4
984,988	-9,99
985,19	-8,05
985,392	-8,84
985,595	-9,92
985,797	-8,68
985,999	-6,56
986,202	-4,81
986,404	-4,46
986,606	-3,37
986,808	-4,62
987,01	-3,5
987,212	-4,67
987,415	-5,66
987,617	-4,85
987,819	-4,62
988,021	-4,07
988,223	-6,09
988,425	-7,71
988,627	-8,95
988,829	-14,97
989,031	-12,55
989,232	-12,59
989,434	-10,15
989,636	-9,32
989,838	-10,23
990,04	-9,9
990,242	-9,99
990,443	-12,76
990,645	-11,35
990,847	-8,58
991,048	-8,27
991,25	-9,51
991,452	-10,7
991,653	-10,57
991,855	-10,29
992,057	-12,25
992,258	-11,02
992,46	-11,71
992,661	-10,14
992,863	-10,55
993,064	-9,35
993,265	-9,39
993,467	-10,9
993,668	-8,09
993,87	-8,18
994,071	-8,03
994,272	-7,29
994,473	-5,76
994,675	-4,32
994,876	-3
995,077	-1,19
995,278	-1,09
995,48	0,11
995,681	-2,47
995,882	-2,73
996,083	-2,24
996,284	-5,32
996,485	-6,09
996,686	-6,35
996,887	-7,39
997,088	-10,98
997,289	-12,14
997,49	-13,01
997,691	-13,45
997,892	-13,58
998,092	-10,84
998,293	-10,7
998,494	-12,97
998,695	-13,69
998,896	-12,07
999,096	-12,25
999,297	-11,63
999,498	-13,41
999,698	-14,36
999,899	-17,67
1000,1	-18,85
1000,3	-19,28
1000,501	-20,56
1000,701	-20,02
1000,902	-20,82
1001,102	-20
1001,303	-18,06
1001,503	-20,02
1001,704	-19,72
1001,904	-20,8
1002,105	-20,43
1002,305	-20,8
1002,505	-21,92
1002,706	-21,66
1002,906	-22,17
1003,106	-22,48
1003,306	-21,11
1003,507	-19,05
1003,707	-19,38
1003,907	-16,64
1004,107	-13,86
1004,307	-15,63
1004,507	-14,1
1004,707	-12,92
1004,907	-14,05
1005,107	-14,94
1005,308	-14,36
1005,507	-15,64
1005,707	-13,67
1005,907	-14,1
1006,107	-10
1006,307	-8,95
1006,507	-8,33
1006,707	-7,08
1006,907	-6,95
1007,106	-8,07
1007,306	-9,46
1007,506	-8,5
1007,706	-7,75
1007,905	-9,75
1008,105	-9,7
1008,305	-11,9
1008,504	-9,62
1008,704	-4,2
1008,903	-3,83
1009,103	-2,29
1009,303	-4,96
1009,502	-3,93
1009,702	-4,16
1009,901	-3,32
1010,1	-7,62
1010,3	-6,77
1010,499	-6,89
1010,699	-8,74
1010,898	-10,15
1011,097	-10,81
1011,296	-11,56
1011,496	-13,4
1011,695	-14,22
1011,894	-16
1012,093	-13,25
1012,293	-15,47
1012,492	-16,83
1012,691	-17,38
1012,89	-17,19
1013,089	-18,3
1013,288	-14,9
1013,487	-14,22
1013,686	-16,43
1013,885	-18,13
1014,084	-17,55
1014,283	-17,43
1014,482	-16,28
1014,681	-17,3
1014,88	-21,08
1015,078	-20,62
1015,277	-22,77
1015,476	-21,85
1015,675	-22,53
1015,873	-23,24
1016,072	-25,76
1016,271	-22,98
1016,47	-27
1016,668	-26,1
1016,867	-25,71
1017,065	-27,63
1017,264	-27,87
1017,463	-27,48
1017,661	-26,91
1017,86	-26,94
1018,058	-25,39
1018,256	-26,82
1018,455	-27,19
1018,653	-26,47
1018,852	-24,94
1019,05	-27,03
1019,248	-29,71
1019,447	-32,56
1019,645	-32,84
1019,843	-33,73
1020,041	-31,16
1020,24	-30,54
1020,438	-26,24
1020,636	-26,92
1020,834	-30,33
1021,032	-29,34
1021,23	-29,55
1021,428	-27,37
1021,626	-24,11
1021,824	-24,06
1022,022	-24,61
1022,22	-22,14
1022,418	-20,77
1022,616	-21,17
1022,814	-21,4
1023,012	-21,25
1023,21	-18,93
1023,408	-17,71
1023,606	-17,79
1023,803	-13,52
1024,001	-12,36
1024,199	-15,09
1024,397	-14,16
1024,594	-14,39
1024,792	-15,24
1024,99	-14,75
1025,187	-13,07
1025,385	-9,27
1025,582	-8,06
1025,78	-8,23
1025,977	-7,12
1026,175	-9,02
1026,372	-9,34
1026,57	-12,07
1026,767	-10,58
1026,965	-8,29
1027,162	-7,71
1027,359	-7,48
1027,557	-6,05
1027,754	-10,04
1027,951	-10,92
1028,148	-8,66
1028,346	-10,25
1028,543	-13,52
1028,74	-13,73
1028,937	-15,4
1029,134	-15,07
1029,331	-16,54
1029,528	-16,43
1029,725	-17,28
1029,923	-20,88
1030,12	-18,36
1030,317	-16,94
1030,513	-16,57
1030,71	-14,11
1030,907	-11,96
1031,104	-13,57
1031,301	-15,81
1031,498	-16,28
1031,695	-16,89
1031,892	-16,55
1032,088	-16,01
1032,285	-16,69
1032,482	-17,1
1032,678	-18,9
1032,875	-19,9
1033,072	-20,08
1033,268	-20,32
1033,465	-21,14
1033,662	-22,97
1033,858	-21,05
1034,055	-20,89
1034,251	-18,71
1034,448	-19,14
1034,644	-17,53
1034,84	-14,66
1035,037	-12,64
1035,233	-12,82
1035,43	-10,55
1035,626	-11,15
1035,822	-10,33
1036,019	-11,6
1036,215	-14,29
1036,411	-13,5
1036,607	-15,11
1036,803	-17,93
1037	-19,44
1037,196	-20,65
1037,392	-21,65
1037,588	-23,09
1037,784	-22,49
1037,98	-23,35
1038,176	-23,95
1038,372	-23,86
1038,568	-21,35
1038,764	-19,34
1038,96	-18,38
1039,156	-18,93
1039,352	-20,48
1039,547	-19,02
1039,743	-19,65
1039,939	-18,77
1040,135	-18,68
1040,331	-21,09
1040,526	-17,59
1040,722	-19,43
1040,918	-19,13
1041,113	-23,66
1041,309	-24,49
1041,505	-27,91
1041,7	-26,71
1041,896	-27,83
1042,091	-28,25
1042,287	-29,11
1042,482	-29,83
1042,678	-29,62
1042,873	-28,97
1043,069	-29,28
1043,264	-28,44
1043,459	-25,95
1043,655	-24,83
1043,85	-25,66
1044,045	-24,55
1044,24	-24,52
1044,436	-22,16
1044,631	-25,14
1044,826	-26,67
1045,021	-28,61
1045,216	-27,96
