Wavelength,Coef
380.0,37.8725
381.0,39.4425
382.0,39.565
383.0,40.595
384.0,39.760000000000005
385.0,39.959999999999994
386.0,38.8775
387.0,40.699999999999996
388.0,45.43
389.0,48.387499999999996
390.0,49.33500000000001
391.0,50.9825
392.0,52.93
393.0,64.955
394.0,74.59
395.0,77.93249999999999
396.0,78.72
397.0,78.6125
398.0,81.0775
399.0,82.87
400.0,82.955
401.0,83.56
402.0,82.84750000000001
403.0,91.1225
404.0,104.945
405.0,124.26249999999999
406.0,140.70666666666668
407.0,159.105
408.0,181.71
409.0,206.32
410.0,241.675
411.0,279.5525
412.0,320.8125
413.0,365.2
414.0,413.685
415.0,472.515
416.0,545.1575
417.0,621.77
418.0,708.92
419.0,804.49
420.0,910.7825
421.0,1029.0875
422.0,1164.5900000000001
423.0,1317.0175000000002
424.0,1483.645
425.0,1669.0425
426.0,1876.3049999999998
427.0,2102.355
428.0,2349.57
429.0,2623.7174999999997
430.0,2916.5675
431.0,3237.475
432.0,3596.3825
433.0,3979.6725000000006
434.0,4387.299999999999
435.0,4833.8150000000005
436.0,5320.237499999999
437.0,5837.365000000001
438.0,6393.0650000000005
439.0,6970.6075
440.0,7584.7125
441.0,8244.485
442.0,8949.289999999999
443.0,9697.57
444.0,10495.2125
445.0,11326.442500000001
446.0,12204.105
447.0,13093.052500000002
448.0,13984.795
449.0,14827.425
450.0,15624.810000000001
451.0,16310.22
452.0,16864.1075
453.0,17275.2725
454.0,17483.1125
455.0,17516.364999999998
456.0,17340.655
457.0,17005.6425
458.0,16504.677499999998
459.0,15900.085
460.0,15228.165
461.0,14512.669999999998
462.0,13814.460000000001
463.0,13123.720000000001
464.0,12491.94
465.0,11899.642500000002
466.0,11366.225
467.0,10879.565
468.0,10408.4225
469.0,9971.5275
470.0,9576.662499999999
471.0,9203.16
472.0,8859.525
473.0,8540.935
474.0,8250.44
475.0,7986.202499999999
476.0,7762.992499999999
477.0,7567.2325
478.0,7408.655
479.0,7288.2725
480.0,7210.695
481.0,7158.9025
482.0,7148.807500000001
483.0,7176.625
484.0,7234.24
485.0,7322.25
486.0,7433.895
487.0,7551.75
488.0,7689.7225
489.0,7837.4375
490.0,7996.0275
491.0,8157.012500000001
492.0,8342.4925
493.0,8530.17
494.0,8725.945
495.0,8926.822499999998
496.0,9140.5125
497.0,9363.814999999999
498.0,9578.395
499.0,9798.045
500.0,10015.04
501.0,10230.0275
502.0,10444.4375
503.0,10678.848
504.0,10894.404999999999
505.0,11090.059999999998
506.0,11281.679999999998
507.0,11455.7025
508.0,11635.279999999999
509.0,11808.58
510.0,11966.3125
511.0,12120.34
512.0,12265.27
513.0,12400.144999999999
514.0,12533.1525
515.0,12648.6575
516.0,12759.9
517.0,12869.192
518.0,12976.4025
519.0,13058.74
520.0,13136.5775
521.0,13203.945000000002
522.0,13271.5375
523.0,13340.315
524.0,13403.415
525.0,13455.025
526.0,13508.6375
527.0,13555.055
528.0,13586.182499999999
529.0,13629.039999999999
530.0,13660.925000000001
531.0,13671.285
532.0,13683.3875
533.0,13687.2525
534.0,13694.2875
535.0,13704.757500000002
536.0,13720.8725
537.0,13727.0675
538.0,13731.057499999999
539.0,13732.186000000002
540.0,13734.914999999999
541.0,13737.13
542.0,13724.5375
543.0,13713.109999999999
544.0,13695.9775
545.0,13671.357500000002
546.0,13652.722500000002
547.0,13626.288
548.0,13597.15
549.0,13569.365
550.0,13545.8775
551.0,13516.4125
552.0,13484.1775
553.0,13450.927500000002
554.0,13418.0925
555.0,13382.21
556.0,13334.833999999999
557.0,13286.022500000001
558.0,13241.355
559.0,13197.96
560.0,13168.6625
561.0,13132.4925
562.0,13105.570000000002
563.0,13105.606
564.0,13120.29
565.0,13154.6875
566.0,13200.502499999999
567.0,13254.98
568.0,13309.34
569.0,13367.4125
570.0,13416.476
571.0,13432.1025
572.0,13415.592499999999
573.0,13368.537499999999
574.0,13286.555
575.0,13187.955
576.0,13067.0925
577.0,12913.956000000002
578.0,12755.465000000002
579.0,12614.66
580.0,12477.815000000002
581.0,12350.970000000001
582.0,12221.6275
583.0,12085.026000000002
584.0,11956.544999999998
585.0,11843.7125
586.0,11730.2675
587.0,11619.07
588.0,11513.1725
589.0,11407.714000000002
590.0,11315.9525
591.0,11248.2875
592.0,11190.642499999998
593.0,11154.7125
594.0,11134.565
595.0,11139.869999999999
596.0,11168.7125
597.0,11184.1725
598.0,11199.26
599.0,11200.789999999999
600.0,11191.82
601.0,11154.1725
602.0,11085.885
603.0,10976.9975
604.0,10843.7325
605.0,10686.69
606.0,10487.931999999999
607.0,10250.905
608.0,10030.192500000001
609.0,9805.835
610.0,9581.6925
611.0,9341.616
612.0,9112.2125
613.0,8914.91
614.0,8728.62
615.0,8536.818
616.0,8347.067500000001
617.0,8182.545
618.0,8020.7125
619.0,7862.13
620.0,7688.114
621.0,7522.43
622.0,7379.137500000001
623.0,7237.8724999999995
624.0,7097.745
625.0,6948.58
626.0,6796.3949999999995
627.0,6666.135
628.0,6527.3475
629.0,6381.544
630.0,6237.5025
631.0,6109.935
632.0,5980.64
633.0,5855.12
634.0,5714.366
635.0,5581.017500000001
636.0,5458.969999999999
637.0,5333.862499999999
638.0,5199.968
639.0,5072.0599999999995
640.0,4959.945
641.0,4851.2175
642.0,4719.902
643.0,4591.985
644.0,4488.975
645.0,4387.365
646.0,4268.0599999999995
647.0,4149.412499999999
648.0,4044.7925
649.0,3949.6425
650.0,3841.3959999999997
651.0,3730.3475
652.0,3636.5825
653.0,3542.4725
654.0,3439.2059999999997
655.0,3334.8575
656.0,3249.705
657.0,3171.225
658.0,3077.6939999999995
659.0,2977.5825
660.0,2893.0475
661.0,2802.786
662.0,2715.23
663.0,2637.3675000000003
664.0,2558.6425
665.0,2481.1339999999996
666.0,2408.1575000000003
667.0,2342.9575
668.0,2268.2740000000003
669.0,2198.7475000000004
670.0,2133.775
671.0,2066.5475
672.0,1998.3439999999998
673.0,1932.5025
674.0,1873.69
675.0,1810.316
676.0,1754.6499999999999
677.0,1707.9525
678.0,1659.965
679.0,1604.322
680.0,1548.265
681.0,1504.6924999999999
682.0,1457.218
683.0,1404.0649999999998
684.0,1361.9524999999999
685.0,1314.06
686.0,1272.9475
687.0,1230.33
688.0,1189.76
689.0,1149.3725
690.0,1112.3225
691.0,1071.3674999999998
692.0,1032.9460000000001
693.0,991.4649999999999
694.0,959.8875
695.0,920.5679999999999
696.0,882.5525
697.0,858.5899999999999
698.0,831.302
699.0,800.6025
700.0,773.3375
701.0,747.026
702.0,723.1600000000001
703.0,700.08
704.0,672.2359999999999
705.0,646.415
706.0,623.005
707.0,599.972
708.0,573.845
709.0,547.052
710.0,523.545
711.0,503.9175
712.0,483.76000000000005
713.0,463.5275
714.0,450.0075
715.0,431.70799999999997
716.0,414.60499999999996
717.0,399.72
718.0,383.26000000000005
719.0,364.8825
720.0,348.3625
721.0,329.286
722.0,313.90500000000003
723.0,307.01000000000005
724.0,295.3375
725.0,289.96750000000003
726.0,276.712
727.0,265.5825
728.0,258.475
729.0,251.202
730.0,238.8475
731.0,227.31199999999998
732.0,216.255
733.0,209.2
734.0,210.964
735.0,206.06749999999997
736.0,199.164
737.0,191.025
738.0,187.345
739.0,178.77599999999998
740.0,173.21250000000003
741.0,159.19
742.0,151.5
743.0,142.83
744.0,140.24400000000003
745.0,136.195
746.0,134.92399999999998
747.0,134.5375
748.0,133.24
749.0,126.58999999999999
750.0,127.7375
751.0,120.43599999999999
752.0,115.49000000000001
753.0,109.316
754.0,106.0225
755.0,103.185
756.0,98.6
757.0,89.985
758.0,87.306
759.0,82.6775
760.0,81.896
761.0,77.69749999999999
762.0,73.36
763.0,73.16
764.0,72.42
765.0,65.94999999999999
766.0,62.8125
767.0,55.69200000000001
768.0,49.93000000000001
769.0,47.35
770.0,44.8425
771.0,43.7525
772.0,42.804
773.0,41.582499999999996
774.0,40.866
775.0,40.785000000000004
776.0,41.00600000000001
777.0,37.06
778.0,34.912
779.0,36.595
780.0,34.891999999999996
