Data from FLMT021711__8__17-06-03-625.txt Node

Date: Tue Nov 05 17:06:03 CET 2024
User: Etudiants TP
Spectrometer: FLMT02171
Trigger mode: 0
Integration Time (sec): 1,000000E-1
Scans to average: 5
Electric dark correction enabled: true
Nonlinearity correction enabled: false
Boxcar width: 15
XAxis mode: Wavelengths
Number of Pixels in Spectrum: 3648
>>>>>Begin Spectral Data<<<<<
194,658	-50,84
194,923	-49,14
195,188	-43,25
195,453	-41,94
195,717	-35,63
195,982	-33,41
196,247	-31,36
196,512	-32,38
196,777	-31,11
197,042	-27,97
197,307	-28,43
197,572	-25,29
197,837	-24,73
198,101	-22,1
198,366	-20,35
198,631	-18,5
198,896	-14,62
199,161	-9,26
199,425	-2,74
199,69	5,55
199,955	5,53
200,22	3,59
200,484	4,31
200,749	4,28
201,014	4,84
201,278	4,38
201,543	6,04
201,807	5,38
202,072	7,51
202,337	6,15
202,601	5,78
202,866	5,37
203,13	6,86
203,395	5,42
203,659	5,77
203,924	3,14
204,189	3,35
204,453	3,2
204,717	4,19
204,982	4,68
205,246	4,55
205,511	5,89
205,775	6,35
206,04	10,37
206,304	10,07
206,568	12,23
206,833	12
207,097	14,57
207,361	16,99
207,626	19,55
207,89	20,51
208,154	21,29
208,419	22,8
208,683	21,96
208,947	23,22
209,211	22,27
209,476	23,11
209,74	23,78
210,004	24,68
210,268	24,16
210,532	28,06
210,796	28,69
211,061	27,8
211,325	28,41
211,589	27,03
211,853	27,78
212,117	28,02
212,381	28,06
212,645	29,28
212,909	30,68
213,173	28,66
213,437	28,45
213,701	29,65
213,965	28,69
214,229	24,25
214,493	24,19
214,757	22,94
215,021	22,98
215,285	25,84
215,549	27,31
215,813	24,95
216,077	25,07
216,34	27,24
216,604	25,13
216,868	25,86
217,132	26,71
217,396	25,99
217,659	26,16
217,923	22,11
218,187	21,51
218,451	21,58
218,714	20,31
218,978	19,72
219,242	22,66
219,505	22,39
219,769	23,75
220,033	23,67
220,296	24,79
220,56	25,09
220,824	23,24
221,087	22,13
221,351	23,08
221,614	22,72
221,878	23,92
222,142	23,24
222,405	23,37
222,669	25,39
222,932	20,56
223,196	17,74
223,459	15,84
223,722	15,58
223,986	14,48
224,249	12,46
224,513	10,76
224,776	12,58
225,04	12,47
225,303	12,69
225,566	14,89
225,83	15,78
226,093	18,01
226,356	17,32
226,62	16,13
226,883	16,69
227,146	17,51
227,409	16,34
227,673	15,16
227,936	15,09
228,199	14,84
228,462	12,65
228,725	12,73
228,989	11,99
229,252	14,87
229,515	17,97
229,778	18,03
230,041	16,01
230,304	14,8
230,567	14,71
230,83	12,71
231,093	16,94
231,356	17,11
231,619	21,19
231,882	19,91
232,145	22,03
232,408	20,51
232,671	20,04
232,934	18,07
233,197	16,72
233,46	16,53
233,723	16,04
233,986	15,18
234,249	12,97
234,512	14,95
234,775	17,42
235,037	16,97
235,3	18,29
235,563	18,28
235,826	19,34
236,089	20,14
236,351	20
236,614	22,67
236,877	22,62
237,14	25,05
237,402	22,92
237,665	18,5
237,928	17,25
238,19	16,11
238,453	17,19
238,716	17,79
238,978	18,7
239,241	17,08
239,503	20,42
239,766	17,26
240,029	16,48
240,291	19,43
240,554	20,27
240,816	20,59
241,079	21,93
241,341	21,7
241,604	19,86
241,866	17,28
242,129	16,68
242,391	19,67
242,653	18,81
242,916	18,67
243,178	17,92
243,441	17,36
243,703	17,34
243,965	15,66
244,228	16,04
244,49	15,47
244,752	16,69
245,015	16,44
245,277	16,73
245,539	15,74
245,801	16,98
246,064	16,54
246,326	15,68
246,588	16,05
246,85	18,34
247,112	18,53
247,374	20,2
247,637	20,96
247,899	20,7
248,161	20,61
248,423	15,84
248,685	16,74
248,947	16,28
249,209	16,8
249,471	17,5
249,733	18,76
249,995	17,67
250,257	17,92
250,519	16,44
250,781	18,68
251,043	16,7
251,305	18,31
251,567	19,37
251,829	19,99
252,091	19,81
252,353	16,59
252,615	16,91
252,876	14,66
253,138	13,44
253,4	11,09
253,662	11,99
253,924	13,88
254,185	14,76
254,447	14,84
254,709	15,19
254,971	16,19
255,232	17,28
255,494	16,28
255,756	15,53
256,017	14,58
256,279	16,17
256,541	16,48
256,802	16,09
257,064	16,73
257,326	14,81
257,587	15,26
257,849	15,38
258,11	18,42
258,372	19,26
258,633	19,22
258,895	17,81
259,156	15,56
259,418	13,1
259,679	9,58
259,941	7,52
260,202	9,55
260,464	11,49
260,725	10,59
260,987	9,83
261,248	9,1
261,509	9,64
261,771	9,01
262,032	10,02
262,293	9,98
262,555	10,06
262,816	9,21
263,077	5,84
263,338	2,82
263,6	2,92
263,861	2,82
264,122	2,45
264,383	2,92
264,645	3,19
264,906	2,02
265,167	3,2
265,428	4,02
265,689	6,36
265,95	4,59
266,211	5,49
266,473	4,63
266,734	3,2
266,995	0,23
267,256	2,47
267,517	6,28
267,778	10,02
268,039	11,13
268,3	9,27
268,561	8,1
268,822	11,56
269,083	9,82
269,344	9,77
269,604	9,15
269,865	10,07
270,126	7,38
270,387	8,86
270,648	10,45
270,909	10,17
271,17	10,49
271,43	8,27
271,691	5,64
271,952	3,17
272,213	5,51
272,473	3,2
272,734	5,15
272,995	6,17
273,256	6,63
273,516	7,58
273,777	4,25
274,038	6,45
274,298	4,3
274,559	5,02
274,82	9,06
275,08	11,54
275,341	12,71
275,601	11,25
275,862	9,34
276,122	9,01
276,383	10,2
276,643	10,69
276,904	10,23
277,164	13,09
277,425	13,6
277,685	16,12
277,946	15,82
278,206	16,95
278,467	18,2
278,727	18,83
278,987	18,05
279,248	18,02
279,508	18,88
279,768	21,54
280,029	23,04
280,289	19,48
280,549	18,61
280,81	17,6
281,07	17,14
281,33	17,73
281,59	16,63
281,851	18,38
282,111	17,47
282,371	16,51
282,631	16,95
282,891	14,97
283,151	13,66
283,412	12,18
283,672	11,71
283,932	11,72
284,192	14,39
284,452	14,16
284,712	13,2
284,972	10,59
285,232	8,7
285,492	10,74
285,752	8,11
286,012	13,34
286,272	14,88
286,532	12,2
286,792	12,28
287,052	13,87
287,312	14,82
287,571	14,05
287,831	14,42
288,091	12,14
288,351	12,71
288,611	16,55
288,871	17,58
289,13	17,43
289,39	14,64
289,65	15,24
289,91	13,72
290,17	15,96
290,429	18,61
290,689	16,79
290,949	15,17
291,208	17,31
291,468	20,44
291,728	22,54
291,987	24,87
292,247	22,44
292,506	22,45
292,766	24,09
293,026	23,83
293,285	25,22
293,545	26,78
293,804	27,3
294,064	23,41
294,323	20,43
294,583	20,22
294,842	20
295,102	20,72
295,361	20,06
295,621	21
295,88	20,74
296,139	21,5
296,399	22,91
296,658	18,78
296,917	17,71
297,177	14,2
297,436	15,65
297,695	15,86
297,955	17,04
298,214	15
298,473	15,58
298,732	17,28
298,992	19,18
299,251	17,49
299,51	14,99
299,769	13,73
300,028	11,6
300,287	11,97
300,547	12,71
300,806	11,91
301,065	14,82
301,324	15,75
301,583	12,24
301,842	10,42
302,101	10,19
302,36	10,67
302,619	11,75
302,878	12,51
303,137	9,99
303,396	10,76
303,655	12,91
303,914	10,62
304,173	10,1
304,432	8,95
304,691	11,73
304,95	10,58
305,208	16,65
305,467	16,1
305,726	15,22
305,985	16,35
306,244	18,75
306,503	18,12
306,761	16,88
307,02	14,06
307,279	15,17
307,537	14,29
307,796	10,46
308,055	9,49
308,314	10,27
308,572	7,95
308,831	8,89
309,09	9,12
309,348	9,72
309,607	9,14
309,865	13,44
310,124	12,22
310,382	13,85
310,641	14,12
310,9	11,8
311,158	11,54
311,417	10,68
311,675	10,62
311,933	10,27
312,192	12,12
312,45	12,3
312,709	12,08
312,967	11,66
313,226	10,87
313,484	8,98
313,742	7,94
314,001	6,03
314,259	3,57
314,517	4,54
314,776	6,49
315,034	8,82
315,292	6,7
315,55	5,63
315,809	6,82
316,067	6,88
316,325	4,93
316,583	6,19
316,841	4,86
317,1	3,01
317,358	-0,34
317,616	0,75
317,874	-1,42
318,132	-2,67
318,39	-3,01
318,648	-3,24
318,906	-3,58
319,164	-1,99
319,422	-1,69
319,68	-2,01
319,938	-0,63
320,196	-0,42
320,454	1,53
320,712	0,88
320,97	0,53
321,228	-2,2
321,486	0,83
321,744	2,24
322,002	4,46
322,26	2,76
322,517	2,15
322,775	-0,75
323,033	-1,91
323,291	0,45
323,549	1,68
323,806	3,23
324,064	4,5
324,322	6,8
324,58	5,72
324,837	6,79
325,095	4,38
325,353	6,74
325,61	6,54
325,868	5,84
326,126	8,2
326,383	6,83
326,641	6,15
326,898	8,2
327,156	6,89
327,413	6,84
327,671	6,31
327,928	8,75
328,186	8,51
328,443	6,18
328,701	9,36
328,958	10,25
329,216	11,32
329,473	9,33
329,731	8,67
329,988	7,76
330,245	10,36
330,503	11
330,76	11,95
331,017	13,8
331,275	11,38
331,532	12,21
331,789	11,35
332,047	10,41
332,304	6,29
332,561	6,74
332,818	6,28
333,076	9,29
333,333	9,27
333,59	10,84
333,847	12,5
334,104	11,43
334,361	11,2
334,618	9,12
334,876	7,43
335,133	8,53
335,39	7,31
335,647	7,25
335,904	4,74
336,161	3,6
336,418	4,52
336,675	1,99
336,932	3,21
337,189	2,59
337,446	4,15
337,703	4,5
337,96	1,68
338,216	1,53
338,473	-0,17
338,73	-0,85
338,987	-0,6
339,244	2,5
339,501	0,07
339,757	0,64
340,014	1,67
340,271	3,88
340,528	5,1
340,785	9,03
341,041	8,19
341,298	6,92
341,555	4,9
341,811	5,02
342,068	3,99
342,325	5,89
342,581	8,46
342,838	10,53
343,094	10,1
343,351	9,59
343,608	7,67
343,864	8,82
344,121	9,45
344,377	8,82
344,634	8,08
344,89	7,19
345,147	6,64
345,403	5,11
345,66	4,63
345,916	6,12
346,172	5,52
346,429	4,32
346,685	4,33
346,942	3,18
347,198	-0,85
347,454	1,24
347,711	0,83
347,967	-1,27
348,223	-0,73
348,48	-1,68
348,736	0,66
348,992	1,29
349,248	2,54
349,504	3,74
349,761	2,88
350,017	2,58
350,273	-0,02
350,529	0,03
350,785	-1,3
351,041	-2,81
351,297	-1,51
351,554	-1,13
351,81	-2,76
352,066	-3,84
352,322	-2,87
352,578	-2,48
352,834	-3,95
353,09	-3,97
353,346	-3,71
353,602	-4,99
353,858	-5,43
354,114	-6,01
354,369	-5,34
354,625	-3,44
354,881	-4,04
355,137	-1,39
355,393	-2,03
355,649	-2,03
355,905	-2,3
356,16	-2,2
356,416	-1,23
356,672	-6,72
356,928	-7,42
357,183	-7,75
357,439	-8,01
357,695	-9,46
357,951	-5,36
358,206	-5,22
358,462	-5,95
358,718	-8,18
358,973	-6,42
359,229	-5,68
359,484	-4,52
359,74	-2,25
359,996	-1,91
360,251	0,25
360,507	-0,91
360,762	-0,15
361,018	1,91
361,273	0,04
361,529	2,87
361,784	3
362,04	3,05
362,295	3,4
362,55	2,26
362,806	4,77
363,061	5,48
363,316	6,18
363,572	6,96
363,827	9,99
364,082	7,83
364,338	7,3
364,593	7,26
364,848	8,15
365,104	6,67
365,359	9,19
365,614	10,8
365,869	8,04
366,124	8,36
366,38	7,26
366,635	11,21
366,89	13,28
367,145	12,77
367,4	15,12
367,655	15,68
367,91	15,69
368,165	12,89
368,42	11,27
368,675	11,6
368,93	12,15
369,185	11,57
369,44	10,44
369,695	11,81
369,95	11,7
370,205	11,19
370,46	11,97
370,715	10,89
370,97	11,4
371,225	11,46
371,48	12,61
371,734	11,96
371,989	12,39
372,244	13,26
372,499	14,33
372,754	13,07
373,008	11,89
373,263	8,96
373,518	10,95
373,773	9,94
374,027	9,07
374,282	10,75
374,537	9,27
374,791	8,07
375,046	7,67
375,301	5,41
375,555	3,93
375,81	5,25
376,064	5,81
376,319	8,79
376,573	9,2
376,828	6,23
377,082	10,18
377,337	7,89
377,591	6,2
377,846	7,23
378,1	9,16
378,355	8,91
378,609	8,25
378,863	4,94
379,118	6,39
379,372	5,07
379,627	3,46
379,881	2,96
380,135	1,2
380,389	0,62
380,644	1,18
380,898	2,66
381,152	2,56
381,407	0,54
381,661	2,15
381,915	4,68
382,169	4,83
382,423	4,36
382,677	2,57
382,932	3,17
383,186	4,9
383,44	5,17
383,694	7,61
383,948	6,34
384,202	5,57
384,456	6,03
384,71	7,07
384,964	5,44
385,218	7,21
385,472	7,93
385,726	8,6
385,98	8,34
386,234	8,51
386,488	5,76
386,742	8,52
386,996	6,88
387,249	7,79
387,503	9,39
387,757	10,26
388,011	12,12
388,265	11,46
388,518	13,27
388,772	14,37
389,026	15,95
389,28	15,17
389,533	14,27
389,787	16,05
390,041	14,57
390,295	13,84
390,548	14,38
390,802	17,65
391,055	16,56
391,309	15,58
391,563	13,51
391,816	15,22
392,07	14,38
392,323	16
392,577	17,38
392,83	18,06
393,084	22,71
393,337	25,83
393,591	25,18
393,844	25,49
394,098	27,97
394,351	31,1
394,604	31,78
394,858	32,77
395,111	32,8
395,364	31,35
395,618	34,23
395,871	32,47
396,124	32,24
396,378	31,14
396,631	31,26
396,884	28,94
397,137	28,47
397,391	29,52
397,644	27,2
397,897	27,4
398,15	28,88
398,403	30,92
398,657	28,02
398,91	27,12
399,163	28,81
399,416	28,69
399,669	27,66
399,922	27,01
400,175	25,16
400,428	25,14
400,681	25,14
400,934	21,7
401,187	20,85
401,44	20,4
401,693	19,13
401,946	15,9
402,199	11,91
402,452	10,7
402,704	7,92
402,957	7,26
403,21	7,47
403,463	4,73
403,716	5,29
403,969	7,05
404,221	5,26
404,474	6,15
404,727	8,56
404,98	10,49
405,232	11,11
405,485	10,89
405,738	13,17
405,99	13,56
406,243	13,99
406,496	17,36
406,748	17,98
407,001	16,42
407,253	16,19
407,506	15,54
407,759	15,84
408,011	13,97
408,264	13,86
408,516	13,95
408,769	12,49
409,021	12,24
409,274	12,87
409,526	15,22
409,778	15,19
410,031	19,05
410,283	19,32
410,536	22,58
410,788	21,13
411,04	23,08
411,293	24,72
411,545	25,26
411,797	24,14
412,049	24,55
412,302	24,08
412,554	25,64
412,806	24,2
413,058	22,01
413,311	23,43
413,563	22,4
413,815	21,91
414,067	21,12
414,319	19,11
414,571	19,56
414,823	16,89
415,075	15,99
415,328	16,71
415,58	19,69
415,832	21,3
416,084	22,1
416,336	21,09
416,588	24,51
416,84	24,06
417,091	25,51
417,343	22,47
417,595	24,79
417,847	25,38
418,099	25,93
418,351	25,69
418,603	29,13
418,855	28,64
419,106	30,04
419,358	30,43
419,61	30
419,862	31,65
420,114	30,37
420,365	28,87
420,617	30,3
420,869	29,69
421,12	28,7
421,372	29,3
421,624	28,74
421,875	28,74
422,127	25,49
422,379	24,78
422,63	29,18
422,882	29,21
423,133	29,67
423,385	30,25
423,636	31,61
423,888	33,35
424,139	35,5
424,391	32,75
424,642	30,68
424,894	29,59
425,145	28,5
425,396	25,25
425,648	27,04
425,899	25,46
426,151	25,92
426,402	23,87
426,653	24,47
426,905	23,24
427,156	21,52
427,407	23,14
427,658	22,66
427,91	21,56
428,161	21,3
428,412	23,32
428,663	24,94
428,914	27,32
429,166	28,38
429,417	30,3
429,668	29,17
429,919	28,88
430,17	28,22
430,421	27,71
430,672	29,62
430,923	29,05
431,174	27,73
431,425	27,87
431,676	26,58
431,927	25,12
432,178	27,69
432,429	28,14
432,68	28,19
432,931	32,13
433,182	35,99
433,433	34,49
433,683	36,14
433,934	36,68
434,185	36,39
434,436	35,66
434,687	36,26
434,937	39,89
435,188	38,37
435,439	37,19
435,69	39,74
435,94	40,47
436,191	41,04
436,442	41,5
436,692	40,07
436,943	39,61
437,194	39,63
437,444	42,76
437,695	47,7
437,945	50,37
438,196	50,66
438,447	51,35
438,697	53,88
438,948	53,99
439,198	51,98
439,449	51,24
439,699	52,97
439,949	52,93
440,2	53,71
440,45	55,78
440,701	56,4
440,951	57,02
441,201	58,9
441,452	59,83
441,702	60,08
441,952	62,41
442,203	64,09
442,453	64,51
442,703	64,25
442,953	66,45
443,204	69,25
443,454	69,07
443,704	70,39
443,954	68,37
444,204	69,79
444,455	72,18
444,705	73,85
444,955	75,64
445,205	75,49
445,455	73,88
445,705	75,24
445,955	76,64
446,205	78,28
446,455	79,46
446,705	81,6
446,955	85,46
447,205	87,69
447,455	91,19
447,705	91,68
447,955	92,8
448,205	94,06
448,454	94,84
448,704	96,86
448,954	97,12
449,204	99,59
449,454	101,17
449,704	101,23
449,953	101,73
450,203	103,96
450,453	103,6
450,703	106,78
450,952	107,93
451,202	110,21
451,452	111,47
451,701	115,3
451,951	120,73
452,201	121,29
452,45	120,68
452,7	121,57
452,949	123,71
453,199	124,25
453,448	125,95
453,698	126,96
453,947	126,08
454,197	125,03
454,446	124,56
454,696	127,04
454,945	126,8
455,195	125,01
455,444	125,08
455,693	128,85
455,943	127,65
456,192	128,2
456,442	128,47
456,691	128,12
456,94	125,97
457,189	124,41
457,439	125,54
457,688	126,52
457,937	126,12
458,186	124,73
458,436	123,33
458,685	123,8
458,934	121,5
459,183	118,97
459,432	119,49
459,681	118,02
459,93	115,77
460,179	116,01
460,429	113,03
460,678	114,32
460,927	115,89
461,176	114,22
461,425	113,43
461,674	114,32
461,923	114,26
462,172	112,1
462,42	108,18
462,669	110,01
462,918	108,21
463,167	107,44
463,416	104,49
463,665	104,07
463,914	102,62
464,162	98,85
464,411	98,78
464,66	100,39
464,909	98,15
465,158	98,64
465,406	97,2
465,655	97,96
465,904	100,07
466,152	100,29
466,401	98,98
466,65	99,74
466,898	97,74
467,147	94,12
467,395	91,74
467,644	93,67
467,893	92,38
468,141	92,3
468,39	87,91
468,638	86,02
468,887	84,06
469,135	82,87
469,384	81,98
469,632	81,35
469,88	81,72
470,129	82,76
470,377	77,66
470,626	79,05
470,874	81,58
471,122	81,61
471,371	80,75
471,619	79,41
471,867	82,48
472,115	81,37
472,364	79,17
472,612	81,72
472,86	78,87
473,108	78,84
473,356	77,86
473,605	78,07
473,853	74,59
474,101	74,61
474,349	74,45
474,597	77,62
474,845	76,04
475,093	75,83
475,341	73,19
475,589	73,46
475,837	73,68
476,085	75,47
476,333	73,08
476,581	74,19
476,829	72,95
477,077	74,21
477,325	73,76
477,573	74,93
477,821	73,16
478,069	75,07
478,317	75,14
478,564	74,64
478,812	73,85
479,06	72,11
479,308	71,18
479,555	69,85
479,803	69,65
480,051	70,23
480,299	68,91
480,546	70,53
480,794	69,16
481,042	69,79
481,289	69,13
481,537	70,95
481,784	69,74
482,032	71,95
482,28	71,1
482,527	73,41
482,775	73,34
483,022	74,87
483,27	75,82
483,517	79,18
483,765	76,82
484,012	77,79
484,259	76,62
484,507	80,06
484,754	80,83
485,002	81,34
485,249	79,71
485,496	82,55
485,744	82,76
485,991	81,85
486,238	79,99
486,486	82,33
486,733	83,97
486,98	87,75
487,227	87,23
487,474	89,51
487,722	92,83
487,969	93,23
488,216	92,65
488,463	93,1
488,71	91,36
488,957	91,58
489,204	91,57
489,451	94,52
489,699	94,16
489,946	93,52
490,193	91,45
490,44	91,61
490,687	92,4
490,934	91,51
491,18	88,64
491,427	92,15
491,674	94,93
491,921	96,44
492,168	96,06
492,415	94,66
492,662	97,25
492,909	100,91
493,155	101,52
493,402	101,78
493,649	102,96
493,896	107,26
494,142	105,17
494,389	106,25
494,636	105,92
494,883	106,21
495,129	106,38
495,376	104,87
495,623	106,34
495,869	109,87
496,116	113,99
496,362	117,07
496,609	120,58
496,855	125,36
497,102	124,8
497,348	126,34
497,595	129,06
497,841	134,64
498,088	135,1
498,334	136,17
498,581	136,3
498,827	138,68
499,074	141,82
499,32	145,13
499,566	150,56
499,813	153,68
500,059	154,8
500,305	156,68
500,552	158,59
500,798	159,93
501,044	164,33
501,29	164,48
501,537	162,13
501,783	166,03
502,029	171,66
502,275	171,65
502,521	172,69
502,767	175,34
503,013	180,34
503,26	181,21
503,506	180,77
503,752	183,7
503,998	184,25
504,244	186,26
504,49	188,04
504,736	193,32
504,982	194,79
505,228	199,18
505,474	201,88
505,72	205,66
505,966	208,86
506,211	215,3
506,457	219,02
506,703	219,07
506,949	220,1
507,195	221,56
507,441	220,71
507,686	225,01
507,932	228,13
508,178	232,36
508,424	234,39
508,669	236,34
508,915	240,75
509,161	246,78
509,406	250,99
509,652	252,55
509,898	258,67
510,143	264,38
510,389	266,63
510,634	265,98
510,88	273,09
511,125	277,91
511,371	280,44
511,616	284,99
511,862	286,31
512,107	287,68
512,353	290,53
512,598	294,83
512,844	295,13
513,089	296,64
513,335	300,45
513,58	302,34
513,825	306,49
514,071	307,37
514,316	310,02
514,561	313,53
514,806	314,61
515,052	319,96
515,297	323,49
515,542	326,31
515,787	327,72
516,033	331,74
516,278	335,2
516,523	337,36
516,768	340,11
517,013	342,04
517,258	345,77
517,503	348,01
517,748	350,52
517,993	351,84
518,238	354,92
518,483	356,13
518,728	359,22
518,973	361,57
519,218	364,11
519,463	368,54
519,708	370,78
519,953	373,85
520,198	375,55
520,443	381,81
520,688	388,22
520,933	390,8
521,177	394,12
521,422	394,32
521,667	400,71
521,912	402,68
522,157	402,99
522,401	407,89
522,646	410,5
522,891	414,38
523,135	417,85
523,38	422,26
523,625	424,8
523,869	429,45
524,114	432,75
524,358	433,61
524,603	435,7
524,848	435,96
525,092	437,71
525,337	442,13
525,581	447,31
525,826	452,15
526,07	455,15
526,315	458,68
526,559	460,13
526,803	461,14
527,048	466,35
527,292	469,59
527,537	470,1
527,781	473,04
528,025	471,55
528,269	473,98
528,514	476,11
528,758	477,22
529,002	479,72
529,247	482,48
529,491	484,9
529,735	490,58
529,979	492,68
530,223	495,75
530,467	494,69
530,712	495,64
530,956	495,99
531,2	498,32
531,444	497,25
531,688	499,99
531,932	500,51
532,176	502,21
532,42	503,53
532,664	506,72
532,908	506,59
533,152	506,46
533,396	506,67
533,64	505,42
533,884	504,29
534,128	504,5
534,371	507,3
534,615	508,66
534,859	508,07
535,103	508,85
535,347	509,42
535,59	512,12
535,834	508,48
536,078	510,06
536,322	511,31
536,565	514,32
536,809	513,89
537,053	517,09
537,296	515,48
537,54	514,98
537,784	515,45
538,027	515,92
538,271	515,22
538,514	514,68
538,758	514,5
539,001	513,57
539,245	514,69
539,488	517,09
539,732	519,71
539,975	521,95
540,219	522,22
540,462	521,92
540,706	523,39
540,949	523,88
541,192	525,79
541,436	529,39
541,679	533,58
541,922	534,87
542,166	531,34
542,409	531,02
542,652	531,31
542,895	532,31
543,139	532,55
543,382	537,15
543,625	536,29
543,868	538,2
544,111	536,8
544,354	536,41
544,598	534,48
544,841	535,45
545,084	534,86
545,327	534,99
545,57	536,78
545,813	537,71
546,056	539,25
546,299	539,29
546,542	542,18
546,785	543,88
547,028	544,51
547,271	542,9
547,514	541,63
547,756	540,59
547,999	540,86
548,242	541,9
548,485	539,49
548,728	540,1
548,971	537,39
549,213	538,21
549,456	535,65
549,699	534,68
549,942	536,06
550,184	535,84
550,427	535,13
550,67	534,91
550,912	530,11
551,155	533,38
551,398	531,76
551,64	531,89
551,883	532,46
552,125	532,26
552,368	531,82
552,61	530,25
552,853	530,88
553,095	530,38
553,338	529,67
553,58	529,99
553,823	529,86
554,065	532,19
554,308	529,66
554,55	527,69
554,792	525,29
555,035	524,66
555,277	524,69
555,519	524,76
555,762	523,18
556,004	524,4
556,246	521,43
556,488	522,8
556,731	518,13
556,973	520,72
557,215	521,49
557,457	521,41
557,699	522,95
557,941	521,95
558,183	523,15
558,426	526,67
558,668	521,9
558,91	523,73
559,152	524,06
559,394	523,32
559,636	524,66
559,878	525,75
560,12	527,09
560,362	528,92
560,604	528,5
560,845	528,93
561,087	527,67
561,329	529,08
561,571	524,58
561,813	524,07
562,055	523,99
562,297	525,97
562,538	527,34
562,78	529,81
563,022	528,35
563,264	528,71
563,505	529,69
563,747	531,24
563,989	528,5
564,23	529,39
564,472	527,01
564,714	528,81
564,955	530,28
565,197	528,4
565,438	529,48
565,68	531,08
565,921	528,69
566,163	529,5
566,404	528,82
566,646	531,63
566,887	532,49
567,129	534,6
567,37	534,2
567,612	536,02
567,853	533,91
568,094	536,53
568,336	536,41
568,577	537,9
568,818	539,2
569,06	540,26
569,301	539,08
569,542	538,96
569,783	541,37
570,025	541,45
570,266	541,09
570,507	543,1
570,748	544,98
570,989	545,43
571,23	547,63
571,472	548,43
571,713	548,09
571,954	550,06
572,195	548,47
572,436	549,28
572,677	551,81
572,918	552,34
573,159	550,02
573,4	548,63
573,641	548,17
573,882	548,25
574,123	544,36
574,364	539,02
574,604	538,44
574,845	536,38
575,086	535,03
575,327	533,66
575,568	531,68
575,809	529,95
576,049	526,73
576,29	522,97
576,531	525,1
576,771	527,6
577,012	529,77
577,253	528,46
577,494	526,25
577,734	524,84
577,975	524,14
578,215	521
578,456	518,83
578,697	517,82
578,937	516,6
579,178	516,15
579,418	513,35
579,659	512,55
579,899	508,66
580,14	506,15
580,38	505,39
580,62	504,42
580,861	507,28
581,101	506,42
581,342	503,34
581,582	499,66
581,822	502,19
582,063	499,4
582,303	499,58
582,543	495,99
582,783	496,89
583,024	496,63
583,264	498,42
583,504	495,39
583,744	496,48
583,984	492,29
584,224	490,31
584,465	487,48
584,705	486,6
584,945	487,15
585,185	484,68
585,425	484,04
585,665	483,25
585,905	482,5
586,145	480,14
586,385	479,69
586,625	480,6
586,865	480,12
587,105	477,56
587,345	476,97
587,585	476,3
587,824	474,93
588,064	475,04
588,304	470,96
588,544	470,96
588,784	472,07
589,024	472,95
589,263	471,38
589,503	468,9
589,743	470,65
589,982	471,96
590,222	470,14
590,462	467,14
590,701	464,43
590,941	467,2
591,181	465,46
591,42	464,74
591,66	467,78
591,899	469,34
592,139	467,72
592,378	467,36
592,618	467,79
592,857	467,96
593,097	467,58
593,336	466,31
593,576	466,67
593,815	467,79
594,055	465,85
594,294	465,38
594,533	466,09
594,773	465,36
595,012	467,5
595,251	466,66
595,491	468,93
595,73	471,62
595,969	472,7
596,208	472,33
596,447	476,79
596,687	478,77
596,926	479,22
597,165	475,87
597,404	478,35
597,643	478,97
597,882	479,06
598,121	480,69
598,36	481,44
598,599	482,98
598,838	482,94
599,077	478,99
599,316	477,97
599,555	477,49
599,794	477,76
600,033	479,38
600,272	478,45
600,511	476,18
600,75	478,12
600,989	477,99
601,228	476,18
601,466	475,97
601,705	476,55
601,944	476,81
602,183	478,74
602,422	475,96
602,66	473,86
602,899	470,43
603,138	469,09
603,376	467,72
603,615	467,17
603,854	462,71
604,092	460,55
604,331	461,26
604,569	460,97
604,808	457,85
605,047	457,72
605,285	456,24
605,524	453,72
605,762	450,2
606	448,65
606,239	449,21
606,477	447,01
606,716	443,32
606,954	440,52
607,193	436,73
607,431	431,88
607,669	428,52
607,908	427,33
608,146	425,59
608,384	422,92
608,622	420,98
608,861	418,65
609,099	416,96
609,337	414,17
609,575	411,32
609,813	409,06
610,052	408,8
610,29	404,25
610,528	400,21
610,766	397,19
611,004	395,97
611,242	393,39
611,48	390,73
611,718	385,59
611,956	383,39
612,194	380,3
612,432	375,5
612,67	372,23
612,908	371,42
613,146	368,5
613,384	365,48
613,621	361,41
613,859	359,94
614,097	357,36
614,335	355,26
614,573	354,21
614,811	353,41
615,048	352,03
615,286	349,74
615,524	347,72
615,761	344,59
615,999	343,64
616,237	341,85
616,474	340,89
616,712	340,62
616,95	336,82
617,187	335,81
617,425	334,66
617,662	334,75
617,9	333,14
618,137	329,12
618,375	324,48
618,612	322,02
618,85	322,39
619,087	323,27
619,325	321,7
619,562	319,92
619,799	318,33
620,037	318,19
620,274	314,44
620,511	315,21
620,749	311,13
620,986	308,79
621,223	305,91
621,461	305,11
621,698	305,52
621,935	304,41
622,172	300,84
622,409	301,11
622,647	300,59
622,884	297,89
623,121	298,43
623,358	295,61
623,595	294,05
623,832	291,99
624,069	289,84
624,306	290,27
624,543	289,58
624,78	289,58
625,017	287,58
625,254	287,66
625,491	289,23
625,728	289,35
625,965	288,97
626,202	286,54
626,438	283,56
626,675	281,5
626,912	281,1
627,149	280,57
627,386	278,6
627,622	278,42
627,859	275,73
628,096	276,07
628,333	275,72
628,569	275,39
628,806	275,73
629,043	273,57
629,279	272,68
629,516	275,01
629,752	269,99
629,989	269,5
630,225	267,11
630,462	265,48
630,699	265,24
630,935	264,31
631,171	262,02
631,408	260,03
631,644	258,17
631,881	253,31
632,117	249,98
632,354	249,44
632,59	247,83
632,826	246,37
633,063	245,57
633,299	244,73
633,535	242,75
633,771	242,6
634,008	244,23
634,244	242,92
634,48	240,23
634,716	240,07
634,953	237,89
635,189	237,5
635,425	236,13
635,661	236,59
635,897	234,18
636,133	232,77
636,369	232,74
636,605	228,15
636,841	224,46
637,077	225,83
637,313	223,8
637,549	222,62
637,785	220,15
638,021	219,03
638,257	217,08
638,493	217,51
638,729	215,11
638,965	215,02
639,2	217,03
639,436	214,92
639,672	213,46
639,908	210,4
640,144	212,71
640,379	213,17
640,615	211,22
640,851	212,25
641,086	211,07
641,322	208,74
641,558	207,2
641,793	207,7
642,029	204,95
642,264	203,86
642,5	203,22
642,736	200,86
642,971	198,48
643,207	196,77
643,442	193,29
643,678	192
643,913	192,9
644,148	190,92
644,384	191,53
644,619	191,86
644,855	192,5
645,09	192,75
645,325	191,29
645,561	190,84
645,796	187,61
646,031	188,8
646,266	186,41
646,502	183,94
646,737	186,1
646,972	183,99
647,207	183,82
647,442	179,3
647,678	175,78
647,913	176,79
648,148	176,28
648,383	174,69
648,618	173,66
648,853	173,18
649,088	174,35
649,323	176,8
649,558	176,84
649,793	175,98
650,028	175,35
650,263	172,77
650,498	173,9
650,733	172,19
650,968	170,51
651,202	170,94
651,437	169,77
651,672	165,2
651,907	162,55
652,142	161,73
652,376	161,46
652,611	162,67
652,846	163,49
653,081	162,36
653,315	161,49
653,55	160,28
653,785	158,83
654,019	157,79
654,254	156,43
654,488	156,22
654,723	152,77
654,958	149,46
655,192	145,86
655,427	141,38
655,661	141,63
655,896	142,41
656,13	142,72
656,364	137,63
656,599	133,24
656,833	138,95
657,068	140,72
657,302	141,26
657,536	139,49
657,771	140,14
658,005	142,36
658,239	140,82
658,474	137,81
658,708	138,22
658,942	137,74
659,176	136,55
659,41	132,35
659,645	131,6
659,879	129,07
660,113	124,25
660,347	123,86
660,581	120,07
660,815	119,25
661,049	118,06
661,283	114
661,517	112,87
661,751	110,8
661,985	110,33
662,219	112,43
662,453	111,86
662,687	113,23
662,921	109,76
663,155	108,38
663,389	103,04
663,622	101,78
663,856	102,91
664,09	95,11
664,324	92,31
664,558	90,74
664,791	90,25
665,025	88,06
665,259	87,82
665,492	86,62
665,726	87,91
665,96	87,03
666,193	85,6
666,427	84,63
666,661	85,02
666,894	80,53
667,128	79,55
667,361	82,15
667,595	80,42
667,828	81,34
668,062	80,29
668,295	79,95
668,529	81,25
668,762	81,56
668,995	79,94
669,229	82,81
669,462	81,9
669,695	82,53
669,929	79,94
670,162	80,58
670,395	78,09
670,629	79,03
670,862	80,48
671,095	76,94
671,328	77,66
671,561	74,63
671,795	74,22
672,028	75,22
672,261	75,16
672,494	74,84
672,727	74,38
672,96	74,04
673,193	72,6
673,426	75,71
673,659	76,64
673,892	77,17
674,125	78,4
674,358	77,46
674,591	75,24
674,824	75,05
675,057	73,11
675,29	72,26
675,523	74,29
675,755	72
675,988	71,86
676,221	74,27
676,454	71,22
676,687	71,74
676,919	68,79
677,152	68,45
677,385	67,4
677,617	68,03
677,85	67,93
678,083	66,02
678,315	67,52
678,548	65,46
678,78	64,54
679,013	63,86
679,246	63,78
679,478	63,65
679,711	60,7
679,943	61,39
680,175	59,65
680,408	62,22
680,64	58,12
680,873	58,63
681,105	57,77
681,338	60,12
681,57	59,3
681,802	59,35
682,034	58,99
682,267	61,24
682,499	62,16
682,731	56,99
682,964	55,98
683,196	53,47
683,428	51,67
683,66	51,14
683,892	52,24
684,124	55,19
684,356	57,62
684,589	58
684,821	54,66
685,053	54,79
685,285	55,05
685,517	57,07
685,749	56,54
685,981	57,7
686,213	58,71
686,445	57,76
686,676	55,45
686,908	56,44
687,14	54,74
687,372	55,19
687,604	52,45
687,836	54,14
688,068	53,12
688,299	51,93
688,531	49,1
688,763	52,68
688,995	50,54
689,226	52,06
689,458	50,68
689,69	49,3
689,921	50,43
690,153	50,8
690,384	52,41
690,616	51,13
690,848	51,59
691,079	49,17
691,311	46,15
691,542	43,97
691,774	42,87
692,005	46,24
692,237	49,07
692,468	47,87
692,699	46,34
692,931	46,04
693,162	43,93
693,393	42,47
693,625	41,58
693,856	42,6
694,087	41,29
694,319	42,55
694,55	41,67
694,781	41,12
695,012	39,78
695,243	37,73
695,475	37,91
695,706	38,26
695,937	37,02
696,168	37,27
696,399	35,64
696,63	35,16
696,861	36,35
697,092	39,33
697,323	42,3
697,554	42,95
697,785	43,66
698,016	43,22
698,247	41,7
698,478	44,01
698,709	44,24
698,94	45,37
699,171	44,29
699,401	40,3
699,632	42,36
699,863	38,84
700,094	38,03
700,325	39,64
700,555	40,13
700,786	41,07
701,017	40,83
701,247	40,49
701,478	40,21
701,709	40,46
701,939	39,34
702,17	40,73
702,401	42,33
702,631	42,82
702,862	40,52
703,092	37,17
703,323	39,24
703,553	40,52
703,784	38,78
704,014	37,49
704,244	33,77
704,475	31,36
704,705	30,23
704,936	31,18
705,166	31,51
705,396	32,18
705,627	31,23
705,857	31,28
706,087	30,72
706,317	29,48
706,548	27,67
706,778	25,76
707,008	27,52
707,238	28,87
707,468	26,89
707,698	25,61
707,928	24,7
708,158	24,08
708,389	24,7
708,619	22,92
708,849	21,35
709,079	21,9
709,309	20,14
709,539	18,31
709,768	18,01
709,998	20,96
710,228	21,15
710,458	20,27
710,688	18,28
710,918	19,93
711,148	18,18
711,378	18,31
711,607	17,32
711,837	17,85
712,067	16,02
712,297	15,14
712,526	15,25
712,756	15,88
712,986	13,16
713,215	11,17
713,445	11,75
713,674	13,86
713,904	13,7
714,134	15,92
714,363	14,41
714,593	14,02
714,822	13,42
715,052	12,86
715,281	11,85
715,511	10,7
715,74	10,69
715,969	10,92
716,199	10,85
716,428	10,48
716,657	10,49
716,887	12,82
717,116	9,12
717,345	9,65
717,575	8,6
717,804	8,03
718,033	4,99
718,262	4,92
718,492	5,31
718,721	6,58
718,95	6,22
719,179	5,52
719,408	5,42
719,637	2,99
719,866	1,78
720,095	4,99
720,324	4,09
720,553	1,24
720,782	-1,56
721,011	-1,65
721,24	-3,9
721,469	-5,13
721,698	-4,26
721,927	-4,1
722,156	-4,53
722,385	-3,12
722,613	-0,22
722,842	1,09
723,071	2,15
723,3	3,31
723,529	3,77
723,757	4,17
723,986	0,67
724,215	0,4
724,443	2,07
724,672	3,87
724,901	4,51
725,129	8,1
725,358	11,36
725,586	8,32
725,815	7,48
726,043	6,7
726,272	3,83
726,5	4,63
726,729	4,73
726,957	0,71
727,186	-1,6
727,414	0,63
727,642	1,8
727,871	3,66
728,099	3,98
728,327	3,64
728,556	5,94
728,784	7,27
729,012	5,61
729,241	7,6
729,469	5,95
729,697	2,86
729,925	2,71
730,153	2,79
730,381	1,88
730,61	1,42
730,838	-1,46
731,066	-0,7
731,294	0,47
731,522	-2,29
731,75	-4,23
731,978	-4,35
732,206	-6,11
732,434	-7,45
732,662	-4,14
732,89	-6,64
733,118	-7,36
733,346	-4,61
733,573	-3,66
733,801	-1,48
734,029	4,41
734,257	5,15
734,485	7,34
734,712	8,09
734,94	6,58
735,168	8,99
735,396	8,88
735,623	7,24
735,851	7,58
736,078	9,8
736,306	10,09
736,534	9,7
736,761	10,57
736,989	8,69
737,216	5,86
737,444	5,27
737,671	6,81
737,899	12,68
738,126	11,86
738,354	12,5
738,581	13,21
738,809	12,55
739,036	9,38
739,263	10,18
739,491	8,62
739,718	7,09
739,945	12,73
740,173	14,5
740,4	13,8
740,627	11,77
740,854	10,42
741,081	8,09
741,309	6,15
741,536	2,45
741,763	1,13
741,99	2,69
742,217	1,32
742,444	2,74
742,671	4,23
742,898	2,32
743,125	0,68
743,352	-1,64
743,579	-1,82
743,806	-1,46
744,033	0,68
744,26	3,64
744,487	3,07
744,714	2,65
744,941	1,25
745,167	3,94
745,394	2,7
745,621	1,5
745,848	2,18
746,075	6,84
746,301	9,91
746,528	12,29
746,755	11,82
746,981	10,36
747,208	11,43
747,435	13,55
747,661	13,98
747,888	15,54
748,114	13,69
748,341	16,19
748,567	18,12
748,794	17,07
749,02	15,6
749,247	13,81
749,473	11,61
749,7	11,58
749,926	11,37
750,152	13,7
750,379	13,68
750,605	14,35
750,831	13,88
751,058	13,67
751,284	11,71
751,51	15,17
751,737	15,23
751,963	12,76
752,189	12,24
752,415	12,21
752,641	12,6
752,867	11,56
753,094	9,25
753,32	7,91
753,546	6,18
753,772	8,84
753,998	6,95
754,224	5,76
754,45	5,64
754,676	4,94
754,902	3,05
755,128	3,79
755,354	3,65
755,579	3,38
755,805	5,88
756,031	5,33
756,257	5,12
756,483	5,32
756,709	3,62
756,934	5,62
757,16	4,17
757,386	4,63
757,612	2,58
757,837	1,09
758,063	2,09
758,289	4,42
758,514	1,65
758,74	-0,99
758,965	-2,68
759,191	-2,95
759,416	-1,38
759,642	1,12
759,868	2,16
760,093	2,51
760,318	0,56
760,544	2,25
760,769	0,17
760,995	-0,09
761,22	0,18
761,445	-0,32
761,671	2,84
761,896	7,58
762,121	7,68
762,347	6,21
762,572	4,02
762,797	2,57
763,022	2,87
763,248	7,93
763,473	8,51
763,698	7,56
763,923	6,9
764,148	7,12
764,373	6,01
764,598	8,03
764,823	9,96
765,048	8,28
765,273	5,76
765,498	3,8
765,723	4,51
765,948	6,77
766,173	6,39
766,398	6,05
766,623	2,64
766,848	2,53
767,073	1,73
767,298	0,84
767,522	-0,37
767,747	0,79
767,972	0,64
768,197	0,23
768,421	-0,83
768,646	-5,18
768,871	-10,06
769,095	-10,22
769,32	-9,4
769,545	-8,03
769,769	-6,62
769,994	-5,04
770,218	-8,72
770,443	-8,67
770,667	-7
770,892	-7,14
771,116	-8,14
771,341	-7,31
771,565	-7,77
771,79	-8,43
772,014	-9,87
772,238	-10,29
772,463	-6,67
772,687	-7,16
772,911	-9,13
773,136	-9,95
773,36	-8,25
773,584	-5,62
773,808	-6,98
774,033	-7,08
774,257	-6,57
774,481	-7,19
774,705	-7,9
774,929	-7,69
775,153	-7,37
775,377	-5,78
775,602	-5,16
775,826	-3,06
776,05	-0,83
776,274	-0,67
776,498	-1,88
776,722	-2,11
776,945	-1,22
777,169	-1,79
777,393	-2,92
777,617	-3,38
777,841	-2,51
778,065	-1,2
778,289	-0,59
778,512	-1,86
778,736	-1,04
778,96	-1,89
779,184	-0,41
779,407	-2,15
779,631	-0,84
779,855	-1,03
780,078	-0,14
780,302	-2,89
780,526	-5,32
780,749	-5,38
780,973	-4,07
781,196	-3,23
781,42	-5,59
781,643	-4,85
781,867	-4,27
782,09	-6,61
782,314	-6,61
782,537	-7,39
782,76	-8,94
782,984	-8,12
783,207	-9,11
783,431	-8,53
783,654	-9,6
783,877	-11,6
784,1	-12,7
784,324	-13,33
784,547	-13,18
784,77	-16,71
784,993	-17,65
785,216	-18,34
785,44	-18,12
785,663	-19,74
785,886	-16,71
786,109	-17,21
786,332	-15,65
786,555	-15,76
786,778	-12,31
787,001	-13,53
787,224	-11,96
787,447	-10,79
787,67	-10,21
787,893	-9,39
788,116	-9,28
788,339	-7,56
788,561	-9,12
788,784	-10,75
789,007	-11,34
789,23	-12,76
789,453	-12,27
789,675	-13,86
789,898	-15,66
790,121	-18,08
790,344	-17,74
790,566	-17,1
790,789	-16,23
791,012	-14,62
791,234	-11,65
791,457	-8,92
791,679	-8
791,902	-8,54
792,124	-9,1
792,347	-9,82
792,569	-9,8
792,792	-12,93
793,014	-11,07
793,237	-10,84
793,459	-10,16
793,681	-11,07
793,904	-9,53
794,126	-11,02
794,348	-11,43
794,571	-9,52
794,793	-10,43
795,015	-10,48
795,237	-10,13
795,46	-7,68
795,682	-8,28
795,904	-5,93
796,126	-7,34
796,348	-7,2
796,57	-3,9
796,792	-3,32
797,014	0,97
797,237	3,77
797,459	4,83
797,681	5,87
797,903	3,01
798,124	2,56
798,346	11,57
798,568	12,78
798,79	16,72
799,012	17,74
799,234	19,66
799,456	21,33
799,678	24,69
799,899	23,08
800,121	20,46
800,343	19,77
800,565	18,55
800,786	17,75
801,008	19,26
801,23	18,96
801,451	18,63
801,673	17,6
801,895	18,58
802,116	19,46
802,338	18,42
802,559	19,58
802,781	18,52
803,002	20,01
803,224	21,16
803,445	19,78
803,667	19,53
803,888	17,5
804,109	15,61
804,331	15,08
804,552	14,32
804,773	17,81
804,995	16,01
805,216	3,77
805,437	1,72
805,658	-1,14
805,88	-1,37
806,101	-1,04
806,322	-1,99
806,543	-3,6
806,764	-5,86
806,985	-4,29
807,207	-4,46
807,428	-3,59
807,649	-6,91
807,87	-8,75
808,091	-7,77
808,312	-6,87
808,533	-2,77
808,754	-3,18
808,975	-5
809,195	-2,12
809,416	-2,32
809,637	-2,6
809,858	-3,8
810,079	-5,69
810,3	-4,39
810,52	-6,81
810,741	-9,19
810,962	-10,48
811,183	-10,81
811,403	-11,03
811,624	-12,36
811,845	-10,94
812,065	-9,17
812,286	-6,8
812,506	-7,76
812,727	-9,47
812,948	-9,48
813,168	-7,49
813,389	-7,08
813,609	-4,69
813,83	-5,71
814,05	-7,17
814,27	-6,63
814,491	-3,15
814,711	-2,98
814,931	-6,16
815,152	-7,11
815,372	-9,14
815,592	-9,65
815,813	-8,94
816,033	-11,42
816,253	-10,29
816,473	-11,36
816,694	-9,93
816,914	-8,02
817,134	-8,97
817,354	-8,29
817,574	-5,47
817,794	-5,9
818,014	-6,11
818,234	-6,24
818,454	-7,56
818,674	-9,61
818,894	-11,95
819,114	-11,36
819,334	-10,1
819,554	-6,91
819,774	-5,09
819,994	-8,15
820,214	-9,95
820,433	-10,67
820,653	-11,52
820,873	-7,89
821,093	-8,4
821,312	-9,91
821,532	-8,66
821,752	-6,36
821,972	-7,82
822,191	-6,71
822,411	-7,36
822,63	-7,13
822,85	-7,64
823,07	-10,89
823,289	-9,9
823,509	-11,67
823,728	-10,83
823,948	-11,63
824,167	-11,63
824,387	-12,93
824,606	-11,52
824,825	-14,27
825,045	-14,53
825,264	-14,22
825,483	-12,79
825,703	-9,82
825,922	-11,35
826,141	-12,27
826,361	-13,4
826,58	-16,63
826,799	-16,92
827,018	-15,71
827,237	-15,32
827,456	-12,87
827,676	-13,06
827,895	-12,11
828,114	-9,81
828,333	-10,12
828,552	-9,13
828,771	-7,46
828,99	-10,35
829,209	-10,25
829,428	-9,03
829,647	-9,06
829,866	-6,94
830,084	-5,94
830,303	-5,38
830,522	-5,3
830,741	-4,59
830,96	-4,05
831,179	-2,85
831,397	-3,32
831,616	-1,23
831,835	-0,68
832,053	0,95
832,272	1,92
832,491	0,77
832,709	-0,02
832,928	1,11
833,147	1,04
833,365	2,14
833,584	3,17
833,802	4,33
834,021	4,99
834,239	5,4
834,458	3,62
834,676	0,4
834,894	-1,05
835,113	-1,29
835,331	-2,64
835,55	-3,7
835,768	-3,43
835,986	-2,01
836,204	-3
836,423	-3,09
836,641	-3,78
836,859	-5,76
837,077	-3,88
837,296	-4,71
837,514	-5,97
837,732	-7,36
837,95	-8,98
838,168	-7,95
838,386	-9,64
838,604	-8,45
838,822	-8,8
839,04	-11,15
839,258	-11,01
839,476	-9,8
839,694	-10,07
839,912	-11,41
840,13	-12,13
840,348	-9,55
840,566	-12,41
840,783	-12,68
841,001	-14,03
841,219	-12,85
841,437	-11,07
841,655	-11,09
841,872	-11,63
842,09	-11,9
842,308	-10,72
842,525	-9,72
842,743	-9,62
842,961	-10,85
843,178	-10,57
843,396	-8
843,613	-7,43
843,831	-8,52
844,048	-9,51
844,266	-8,71
844,483	-8,84
844,701	-8,72
844,918	-8,01
845,136	-7,65
845,353	-8,14
845,57	-7,5
845,788	-4,01
846,005	-5,6
846,222	-6,76
846,439	-6,59
846,657	-5,68
846,874	-5,16
847,091	-6,55
847,308	-3,97
847,526	-3,96
847,743	-3,26
847,96	-5,06
848,177	-5,4
848,394	-6,54
848,611	-5,85
848,828	-6,51
849,045	-7,07
849,262	-7,02
849,479	-7,5
849,696	-8,8
849,913	-10,72
850,13	-14,44
850,347	-10,63
850,564	-9,23
850,78	-9,71
850,997	-11,7
851,214	-11,38
851,431	-10,81
851,647	-13
851,864	-12,21
852,081	-12,32
852,298	-17,33
852,514	-19,68
852,731	-18,38
852,948	-16,1
853,164	-15,55
853,381	-15,71
853,597	-15,82
853,814	-16,89
854,03	-19,79
854,247	-17,7
854,463	-18,55
854,68	-19,72
854,896	-18,64
855,113	-16,4
855,329	-15,97
855,545	-13,08
855,762	-13,66
855,978	-16,25
856,194	-18,12
856,411	-14,09
856,627	-12,55
856,843	-11,04
857,059	-9,79
857,275	-12,13
857,492	-10,81
857,708	-7,68
857,924	-5,49
858,14	-4,26
858,356	-6,35
858,572	-6,44
858,788	-7,23
859,004	-4,28
859,22	-4,59
859,436	-4,75
859,652	-5,47
859,868	-7,11
860,084	-7,15
860,3	-7,3
860,516	-7,9
860,731	-6,94
860,947	-9,54
861,163	-8,51
861,379	-6,73
861,595	-5,49
861,81	-6,22
862,026	-5,92
862,242	-6,44
862,457	-7,31
862,673	-6,08
862,889	-5,28
863,104	-6,86
863,32	-6,86
863,535	-5,99
863,751	-9,65
863,966	-7,25
864,182	-5,74
864,397	-6,33
864,613	-8,03
864,828	-8,35
865,044	-5,39
865,259	-3,26
865,474	-4,36
865,69	-2,47
865,905	-1,9
866,12	-3,64
866,336	-4,07
866,551	-1,47
866,766	-1,79
866,981	-2,15
867,196	-1,09
867,412	-0,59
867,627	0,04
867,842	-1
868,057	-0,33
868,272	-0,3
868,487	-1,14
868,702	-3,61
868,917	-4,98
869,132	-3,98
869,347	-3,02
869,562	-4,02
869,777	-4,15
869,992	-4,71
870,207	-5,1
870,422	-5,66
870,636	-7,74
870,851	-9,56
871,066	-12,24
871,281	-12,79
871,495	-13,96
871,71	-12,88
871,925	-15,89
872,14	-16,45
872,354	-18,49
872,569	-19,14
872,783	-16,42
872,998	-16,38
873,213	-18,66
873,427	-16,23
873,642	-13,96
873,856	-14,77
874,071	-15,82
874,285	-17,23
874,5	-17,48
874,714	-20,97
874,928	-22,9
875,143	-22,6
875,357	-21,61
875,571	-21,82
875,786	-21,23
876	-18,67
876,214	-17,28
876,429	-18,69
876,643	-18,51
876,857	-17,22
877,071	-16,79
877,285	-17,09
877,499	-19,41
877,714	-15,59
877,928	-13,45
878,142	-15,26
878,356	-16,45
878,57	-15,16
878,784	-12,83
878,998	-12,82
879,212	-10,32
879,426	-13,25
879,639	-12,39
879,853	-13,15
880,067	-13,66
880,281	-16,27
880,495	-14,72
880,709	-12,42
880,922	-11,71
881,136	-11,52
881,35	-8,1
881,564	-9,2
881,777	-10,82
881,991	-10,27
882,205	-7
882,418	-6,83
882,632	-9,43
882,845	-9,44
883,059	-8,83
883,273	-7,89
883,486	-10,42
883,7	-8,38
883,913	-7,67
884,126	-6,6
884,34	-10,21
884,553	-11,25
884,767	-6,95
884,98	-6,94
885,193	-7,62
885,407	-8,59
885,62	-7,59
885,833	-8,14
886,046	-5,59
886,26	-6,22
886,473	-6,04
886,686	-7,08
886,899	-5,7
887,112	-7,13
887,326	-8,77
887,539	-8,25
887,752	-6,9
887,965	-8,19
888,178	-5,31
888,391	-4,56
888,604	-4,92
888,817	-6,88
889,03	-5,67
889,243	-7,42
889,455	-9,45
889,668	-8,54
889,881	-7,34
890,094	-7,77
890,307	-10,7
890,52	-10,09
890,732	-8,57
890,945	-7,41
891,158	-7,3
891,37	-9,93
891,583	-8,46
891,796	-6,56
892,008	-8,95
892,221	-8,23
892,434	-11,38
892,646	-12,12
892,859	-12,63
893,071	-10,56
893,284	-8,72
893,496	-9,29
893,709	-8,67
893,921	-7,64
894,133	-8,88
894,346	-8,1
894,558	-8,79
894,771	-10,73
894,983	-8,95
895,195	-7,86
895,407	-8,17
895,62	-10,74
895,832	-9,52
896,044	-7,8
896,256	-7,59
896,468	-9,45
896,681	-7,03
896,893	-5,24
897,105	-5,39
897,317	-6,81
897,529	-5,96
897,741	-6,21
897,953	-3,51
898,165	-6,35
898,377	-9,92
898,589	-6,88
898,801	-9,1
899,013	-6,5
899,224	-4,39
899,436	-3,79
899,648	-5,81
899,86	-7,58
900,072	-5,5
900,283	-5,21
900,495	-5,34
900,707	-4,79
900,919	-8,17
901,13	-6,63
901,342	-7,54
901,554	-8,53
901,765	-8,41
901,977	-10,85
902,188	-10,7
902,4	-11,6
902,611	-12,04
902,823	-14,12
903,034	-15,14
903,246	-17,27
903,457	-19,7
903,669	-21,01
903,88	-20,16
904,091	-20,06
904,303	-18,86
904,514	-20,82
904,725	-18,39
904,936	-15,92
905,148	-16,59
905,359	-14,65
905,57	-15,71
905,781	-17,11
905,992	-16,6
906,204	-15,09
906,415	-14,63
906,626	-15,94
906,837	-13,37
907,048	-13,28
907,259	-12,77
907,47	-13,8
907,681	-14,29
907,892	-12,22
908,103	-13,36
908,314	-15,58
908,525	-11,56
908,735	-11,75
908,946	-12,11
909,157	-14,05
909,368	-11,99
909,579	-9,41
909,789	-10,09
910	-9,8
910,211	-7,71
910,421	-8,55
910,632	-8,96
910,843	-10,84
911,053	-8,14
911,264	-6,36
911,475	-5,5
911,685	-5,1
911,896	-5,18
912,106	-4,12
912,317	-6,08
912,527	-5,58
912,737	-6,91
912,948	-7,08
913,158	-7,26
913,369	-10,67
913,579	-9,15
913,789	-8,33
914	-4,96
914,21	-5,02
914,42	-4,23
914,63	-3,53
914,841	-2,86
915,051	-2,76
915,261	-2,06
915,471	0,24
915,681	1,93
915,891	1,88
916,101	0,04
916,311	0,61
916,521	1,38
916,731	2,42
916,941	4,3
917,151	4,45
917,361	6,98
917,571	3
917,781	0,58
917,991	-3,15
918,201	-3,23
918,411	-5,41
918,621	-5,96
918,83	-4,31
919,04	-5,57
919,25	-2,94
919,46	-0,96
919,669	-1,99
919,879	-1,52
920,089	-3,21
920,298	-4,2
920,508	-3,73
920,717	-3,23
920,927	-5,35
921,136	-5,34
921,346	-6,81
921,555	-9,55
921,765	-8,38
921,974	-10,85
922,184	-13,2
922,393	-14,01
922,603	-15,65
922,812	-14,32
923,021	-15,2
923,23	-17,3
923,44	-18,96
923,649	-19,37
923,858	-20,92
924,067	-19,91
924,277	-20,91
924,486	-18,49
924,695	-18,79
924,904	-16,73
925,113	-16,38
925,322	-15,69
925,531	-14,64
925,74	-17,97
925,949	-19,81
926,158	-18,73
926,367	-19,38
926,576	-18,55
926,785	-18,84
926,994	-19,68
927,203	-18,96
927,412	-19,25
927,621	-19,63
927,83	-17,24
928,038	-18,4
928,247	-20,6
928,456	-19,28
928,665	-16,86
928,873	-14,66
929,082	-12,55
929,291	-12,16
929,499	-10,29
929,708	-10,89
929,916	-10,59
930,125	-10,78
930,333	-11,2
930,542	-8,33
930,75	-5,49
930,959	-4,33
931,167	-4,87
931,376	-5,5
931,584	-4,73
931,793	-4,49
932,001	-5,23
932,209	-5,02
932,418	-6,9
932,626	-8,5
932,834	-9,51
933,042	-12,24
933,251	-13,06
933,459	-12,75
933,667	-13,61
933,875	-13,45
934,083	-11,78
934,291	-9,79
934,499	-8,41
934,707	-8,03
934,915	-8,15
935,123	-7,45
935,331	-9,14
935,539	-9,67
935,747	-11,04
935,955	-12,07
936,163	-12,5
936,371	-12,23
936,579	-11,34
936,787	-11,7
936,995	-14
937,202	-15,94
937,41	-15,95
937,618	-16,34
937,826	-16,21
938,033	-19,52
938,241	-22,64
938,449	-20,67
938,656	-18,81
938,864	-18,92
939,071	-18,9
939,279	-17,26
939,486	-14,27
939,694	-14,27
939,901	-16,52
940,109	-15,85
940,316	-16,27
940,524	-17,46
940,731	-20,77
940,939	-18,3
941,146	-18,14
941,353	-19,31
941,561	-20,03
941,768	-19,7
941,975	-18,92
942,182	-18,41
942,39	-18,06
942,597	-14,99
942,804	-15,65
943,011	-16,27
943,218	-15,06
943,425	-15,51
943,632	-14,83
943,839	-15,6
944,046	-17,12
944,253	-16,98
944,46	-16,55
944,667	-12,54
944,874	-14,02
945,081	-13,86
945,288	-11,58
945,495	-10,06
945,702	-8,12
945,909	-9,88
946,115	-9,56
946,322	-9,89
946,529	-10,67
946,736	-9,52
946,942	-8,52
947,149	-8,68
947,356	-11,43
947,562	-13,15
947,769	-11,5
947,976	-11,95
948,182	-11,67
948,389	-12,61
948,595	-13,33
948,802	-12,85
949,008	-14,75
949,215	-13,77
949,421	-13,35
949,628	-14,48
949,834	-13,07
950,04	-15,12
950,247	-13,68
950,453	-10,89
950,659	-11,45
950,865	-10,79
951,072	-15,07
951,278	-13,01
951,484	-14,81
951,69	-17,52
951,896	-18,45
952,103	-20,13
952,309	-18,64
952,515	-18,19
952,721	-16,76
952,927	-16,02
953,133	-17,45
953,339	-18
953,545	-18,58
953,751	-16,71
953,957	-12,61
954,163	-14,69
954,369	-14,21
954,574	-16,47
954,78	-16,83
954,986	-14,79
955,192	-13,17
955,398	-14,4
955,603	-16,38
955,809	-15,23
956,015	-16,6
956,22	-17,27
956,426	-14,38
956,632	-16,45
956,837	-16,83
957,043	-17,12
957,248	-16,38
957,454	-14,79
957,66	-16,38
957,865	-16,79
958,07	-15,25
958,276	-15,69
958,481	-16,8
958,687	-17,88
958,892	-17,07
959,097	-17,02
959,303	-16,69
959,508	-16,8
959,713	-16,63
959,919	-15,55
960,124	-16,6
960,329	-17,13
960,534	-14,39
960,739	-13,56
960,945	-10,96
961,15	-10,29
961,355	-11,55
961,56	-15,16
961,765	-15,61
961,97	-14,98
962,175	-14,49
962,38	-15
962,585	-14,04
962,79	-17,55
962,995	-17,75
963,2	-19,03
963,404	-18,9
963,609	-20,79
963,814	-21,89
964,019	-24,03
964,224	-23,85
964,428	-22,64
964,633	-20,82
964,838	-19,26
965,042	-18,92
965,247	-21,94
965,452	-21,98
965,656	-21,71
965,861	-20,47
966,066	-21,74
966,27	-20,06
966,475	-17,23
966,679	-21,71
966,884	-20,91
967,088	-23
967,292	-24,19
967,497	-23,64
967,701	-24,61
967,906	-22,69
968,11	-20,05
968,314	-16,08
968,518	-16,7
968,723	-14,54
968,927	-14,1
969,131	-11,84
969,335	-9,6
969,539	-9,45
969,744	-7,93
969,948	-5,4
970,152	-3,27
970,356	-1,9
970,56	-2,13
970,764	-2,6
970,968	-1,43
971,172	-1,99
971,376	-1,28
971,58	0,27
971,784	0,17
971,988	-0,67
972,192	1,52
972,395	0,24
972,599	-1,85
972,803	-2,65
973,007	-0,4
973,21	-0,44
973,414	0,37
973,618	0,18
973,822	0,08
974,025	0,15
974,229	-0,92
974,432	-2,86
974,636	-5,14
974,84	-4,65
975,043	-4,47
975,247	-5,87
975,45	-6,56
975,654	-6,86
975,857	-4,79
976,06	-5,75
976,264	-8,05
976,467	-7,33
976,671	-8,35
976,874	-6,83
977,077	-8,96
977,28	-10,7
977,484	-12,42
977,687	-14,12
977,89	-13,16
978,093	-13,07
978,297	-13,62
978,5	-16,75
978,703	-15,08
978,906	-14,35
979,109	-16,19
979,312	-14,19
979,515	-15,37
979,718	-16,26
979,921	-15,94
980,124	-17,8
980,327	-17,79
980,53	-18,1
980,733	-16,64
980,936	-15,15
981,138	-16,88
981,341	-16,01
981,544	-14,53
981,747	-15,07
981,949	-15,82
982,152	-15,89
982,355	-16,6
982,558	-13,43
982,76	-16,72
982,963	-17,19
983,165	-16,68
983,368	-15,95
983,571	-15,9
983,773	-12,66
983,976	-11,38
984,178	-9,17
984,381	-9,74
984,583	-10,94
984,785	-10,92
984,988	-9,06
985,19	-7,42
985,392	-8,16
985,595	-12,22
985,797	-12,11
985,999	-9,15
986,202	-6,7
986,404	-6,46
986,606	-3,87
986,808	-3,54
987,01	-1,75
987,212	-2,51
987,415	-3,96
987,617	-3,99
987,819	-6,29
988,021	-5,3
988,223	-6,42
988,425	-6,43
988,627	-5,01
988,829	-8,49
989,031	-6,28
989,232	-6,89
989,434	-6,7
989,636	-5,99
989,838	-5,07
990,04	-4,63
990,242	-5,48
990,443	-8,26
990,645	-5,75
990,847	-3,93
991,048	-2,98
991,25	-4,63
991,452	-4,78
991,653	-5,79
991,855	-5,31
992,057	-6,04
992,258	-6,29
992,46	-7,65
992,661	-7,08
992,863	-8,01
993,064	-8,81
993,265	-11,01
993,467	-12,77
993,668	-10,34
993,87	-9,26
994,071	-9,19
994,272	-9,02
994,473	-7,43
994,675	-6,46
994,876	-6,63
995,077	-5,71
995,278	-5,19
995,48	-3,95
995,681	-4,95
995,882	-3,86
996,083	-4,81
996,284	-8,62
996,485	-9,23
996,686	-9,3
996,887	-10,33
997,088	-12,27
997,289	-13,06
997,49	-13,25
997,691	-14,81
997,892	-13,07
998,092	-8,32
998,293	-8,32
998,494	-8,81
998,695	-8,86
998,896	-7,37
999,096	-7,55
999,297	-5,58
999,498	-6,79
999,698	-8,96
999,899	-10,85
1000,1	-13,94
1000,3	-13,8
1000,501	-15,28
1000,701	-15,83
1000,902	-17,84
1001,102	-18,61
1001,303	-16,26
1001,503	-18,06
1001,704	-17,72
1001,904	-18,49
1002,105	-18,84
1002,305	-18,34
1002,505	-18,22
1002,706	-19,05
1002,906	-19,42
1003,106	-21,29
1003,306	-19,78
1003,507	-19,42
1003,707	-18,78
1003,907	-16,21
1004,107	-15,83
1004,307	-17,63
1004,507	-16,04
1004,707	-16,11
1004,907	-18,3
1005,107	-18,57
1005,308	-18,48
1005,507	-19,86
1005,707	-18,15
1005,907	-17,07
1006,107	-15,24
1006,307	-13,68
1006,507	-13,59
1006,707	-11,78
1006,907	-11,52
1007,106	-12,1
1007,306	-12,16
1007,506	-12,83
1007,706	-13,47
1007,905	-15,8
1008,105	-15,61
1008,305	-16,98
1008,504	-16,51
1008,704	-12,24
1008,903	-10,99
1009,103	-9,61
1009,303	-10,4
1009,502	-11,01
1009,702	-10,94
1009,901	-12,13
1010,1	-15,31
1010,3	-14,1
1010,499	-14,53
1010,699	-16,01
1010,898	-17,88
1011,097	-16,81
1011,296	-16,8
1011,496	-16,27
1011,695	-16,16
1011,894	-17,06
1012,093	-13,59
1012,293	-13,75
1012,492	-14,37
1012,691	-14,77
1012,89	-15,58
1013,089	-16,86
1013,288	-15,3
1013,487	-14,03
1013,686	-14,54
1013,885	-14,87
1014,084	-11,95
1014,283	-12,44
1014,482	-12,7
1014,681	-14,29
1014,88	-17,54
1015,078	-17,18
1015,277	-19,51
1015,476	-19,48
1015,675	-19,35
1015,873	-19,17
1016,072	-18,47
1016,271	-16,19
1016,47	-20,31
1016,668	-21,03
1016,867	-22,15
1017,065	-22,63
1017,264	-22,99
1017,463	-23,65
1017,661	-24,79
1017,86	-24,97
1018,058	-24,2
1018,256	-27,43
1018,455	-28,2
1018,653	-26,95
1018,852	-25,89
1019,05	-27,14
1019,248	-28,68
1019,447	-29,67
1019,645	-30,67
1019,843	-31,41
1020,041	-29,42
1020,24	-30,21
1020,438	-26,23
1020,636	-25,61
1020,834	-26,92
1021,032	-24,97
1021,23	-26,33
1021,428	-25,24
1021,626	-22,3
1021,824	-22,63
1022,022	-23,18
1022,22	-21,78
1022,418	-19,9
1022,616	-19,86
1022,814	-19,29
1023,012	-19,11
1023,21	-17,29
1023,408	-17,12
1023,606	-18,18
1023,803	-13,99
1024,001	-13,74
1024,199	-14,65
1024,397	-13,56
1024,594	-12,73
1024,792	-15,41
1024,99	-14,86
1025,187	-15,31
1025,385	-10,51
1025,582	-9,57
1025,78	-9,48
1025,977	-9,78
1026,175	-10,24
1026,372	-10,7
1026,57	-13,51
1026,767	-11,85
1026,965	-10,25
1027,162	-10,7
1027,359	-9,57
1027,557	-8,09
1027,754	-10,66
1027,951	-10,61
1028,148	-9,17
1028,346	-10,67
1028,543	-13,47
1028,74	-12,63
1028,937	-14,79
1029,134	-15,58
1029,331	-17,28
1029,528	-16,9
1029,725	-16,67
1029,923	-21,06
1030,12	-18,21
1030,317	-17,57
1030,513	-16,03
1030,71	-16,32
1030,907	-14,19
1031,104	-15,12
1031,301	-15,59
1031,498	-17,83
1031,695	-17,39
1031,892	-17,62
1032,088	-17,31
1032,285	-18,78
1032,482	-19,9
1032,678	-22,53
1032,875	-24,15
1033,072	-24,21
1033,268	-24,92
1033,465	-25,24
1033,662	-27,73
1033,858	-26,96
1034,055	-26,21
1034,251	-23,92
1034,448	-25,27
1034,644	-25,57
1034,84	-23,06
1035,037	-21,37
1035,233	-20,36
1035,43	-19
1035,626	-19,57
1035,822	-18,24
1036,019	-18,05
1036,215	-21,74
1036,411	-22,67
1036,607	-24,18
1036,803	-26,5
1037	-26,67
1037,196	-28,26
1037,392	-29,11
1037,588	-30,86
1037,784	-31,74
1037,98	-32,53
1038,176	-32,6
1038,372	-33,77
1038,568	-31,33
1038,764	-28,94
1038,96	-27,43
1039,156	-28,85
1039,352	-29,94
1039,547	-29,75
1039,743	-29,18
1039,939	-27,1
1040,135	-27,62
1040,331	-29,85
1040,526	-26,85
1040,722	-26,48
1040,918	-27,36
1041,113	-29,41
1041,309	-30,24
1041,505	-31,67
1041,7	-31,69
1041,896	-32
1042,091	-31,67
1042,287	-30,31
1042,482	-29,95
1042,678	-30,4
1042,873	-28,9
1043,069	-29,73
1043,264	-28,47
1043,459	-26,1
1043,655	-24,41
1043,85	-24,88
1044,045	-23,7
1044,24	-23,1
1044,436	-19,18
1044,631	-20,84
1044,826	-21,21
1045,021	-23,62
1045,216	-21,6
