Data from FLMT021711__6__18-14-26-188.txt Node

Date: Tue Nov 05 18:14:26 CET 2024
User: Etudiants TP
Spectrometer: FLMT02171
Trigger mode: 0
Integration Time (sec): 1,000000E-1
Scans to average: 5
Electric dark correction enabled: true
Nonlinearity correction enabled: false
Boxcar width: 15
XAxis mode: Wavelengths
Number of Pixels in Spectrum: 3648
>>>>>Begin Spectral Data<<<<<
194,658	-67,38
194,923	-64,43
195,188	-56,54
195,453	-54,95
195,717	-48,23
195,982	-46,44
196,247	-44,29
196,512	-46,94
196,777	-45,85
197,042	-44,59
197,307	-44,19
197,572	-38,89
197,837	-38,84
198,101	-36,94
198,366	-34,59
198,631	-32,53
198,896	-26,72
199,161	-19,28
199,425	-11,41
199,69	-0,8
199,955	-1,98
200,22	-5,2
200,484	-5,72
200,749	-5,87
201,014	-4,24
201,278	-5,13
201,543	-4,54
201,807	-5,75
202,072	-4
202,337	-3,64
202,601	-3,23
202,866	-5,65
203,13	-5,21
203,395	-8,02
203,659	-7,98
203,924	-9,66
204,189	-8,89
204,453	-8,57
204,717	-5,61
204,982	-3,5
205,246	-1,44
205,511	0,47
205,775	-1,18
206,04	3,25
206,304	3,59
206,568	5,63
206,833	5,81
207,097	7,95
207,361	10,04
207,626	12,61
207,89	13,24
208,154	14,19
208,419	16,7
208,683	17,95
208,947	20,66
209,211	20,25
209,476	21,01
209,74	21,67
210,004	23,12
210,268	22,88
210,532	25,94
210,796	26,28
211,061	27,77
211,325	29,73
211,589	28,89
211,853	29,77
212,117	29,94
212,381	29,38
212,645	30,31
212,909	30,5
213,173	27,82
213,437	27,78
213,701	27,23
213,965	27,38
214,229	22,85
214,493	23,63
214,757	22,96
215,021	23,4
215,285	27,14
215,549	28,95
215,813	26,39
216,077	24,83
216,34	27,6
216,604	26,36
216,868	26,41
217,132	25,18
217,396	25,59
217,659	26,02
217,923	21,92
218,187	21,47
218,451	21,42
218,714	18,73
218,978	19,99
219,242	21,72
219,505	21,67
219,769	23,01
220,033	22,27
220,296	23,27
220,56	24,97
220,824	22,15
221,087	21,57
221,351	20,68
221,614	20,1
221,878	21,46
222,142	20,54
222,405	21,27
222,669	23,88
222,932	19,22
223,196	17,05
223,459	13,53
223,722	14,24
223,986	14,15
224,249	13,79
224,513	13,2
224,776	13,26
225,04	12,38
225,303	13,86
225,566	12,17
225,83	13,05
226,093	17,13
226,356	13,8
226,62	11,99
226,883	12,77
227,146	12,53
227,409	11,13
227,673	9,8
227,936	7,81
228,199	8,16
228,462	5,57
228,725	4,66
228,989	6,4
229,252	8,82
229,515	15,28
229,778	14,51
230,041	14,55
230,304	11,32
230,567	12,21
230,83	9,15
231,093	12,32
231,356	11,34
231,619	16,9
231,882	14,07
232,145	16,03
232,408	14,81
232,671	13,8
232,934	14,04
233,197	13,02
233,46	10,71
233,723	11,69
233,986	9,87
234,249	7,36
234,512	10,18
234,775	13,9
235,037	14,52
235,3	14,21
235,563	15,9
235,826	15,6
236,089	18,27
236,351	17,37
236,614	19,75
236,877	19,4
237,14	20,79
237,402	19,57
237,665	12,76
237,928	12,41
238,19	9,36
238,453	14,01
238,716	14,51
238,978	13,97
239,241	12,8
239,503	16,29
239,766	12,45
240,029	12,45
240,291	15,44
240,554	16,28
240,816	14,88
241,079	15,48
241,341	15,43
241,604	14,07
241,866	12,31
242,129	12,45
242,391	13,53
242,653	12,48
242,916	12,66
243,178	12,72
243,441	13,98
243,703	11,85
243,965	9,9
244,228	10,79
244,49	11,23
244,752	13,07
245,015	14,64
245,277	16,63
245,539	14,17
245,801	16,08
246,064	14,77
246,326	13,86
246,588	12,67
246,85	12,86
247,112	13,8
247,374	15,51
247,637	17,06
247,899	16,27
248,161	15,82
248,423	11,17
248,685	12,18
248,947	13,01
249,209	12,98
249,471	13,69
249,733	15,87
249,995	14,13
250,257	15,27
250,519	14,21
250,781	16,62
251,043	12,89
251,305	14,41
251,567	14,74
251,829	16,21
252,091	16,71
252,353	12,23
252,615	12,35
252,876	9,54
253,138	6,53
253,4	2,15
253,662	5,1
253,924	7,84
254,185	9,8
254,447	10,77
254,709	10,97
254,971	12,54
255,232	15,18
255,494	14,39
255,756	12,06
256,017	12,11
256,279	12,03
256,541	11,75
256,802	10,14
257,064	11,03
257,326	11,25
257,587	13,96
257,849	14,73
258,11	17,97
258,372	18,55
258,633	18,85
258,895	18,73
259,156	17,23
259,418	15,79
259,679	11,67
259,941	9,14
260,202	11,74
260,464	15,13
260,725	14,4
260,987	12,63
261,248	12,48
261,509	13,62
261,771	11,56
262,032	12,32
262,293	10,92
262,555	12
262,816	10,2
263,077	7,72
263,338	3,73
263,6	4,29
263,861	3,27
264,122	3,4
264,383	6,27
264,645	7,46
264,906	7,51
265,167	8,54
265,428	6,75
265,689	7,08
265,95	4,44
266,211	5,73
266,473	5,77
266,734	3,57
266,995	-0,62
267,256	1,67
267,517	3,07
267,778	7,32
268,039	8,72
268,3	6,22
268,561	4,41
268,822	8,39
269,083	7,21
269,344	6,05
269,604	4,65
269,865	5,68
270,126	2,17
270,387	4,2
270,648	4,77
270,909	5,12
271,17	4,66
271,43	2,25
271,691	-1,49
271,952	-2,08
272,213	-0,72
272,473	-3,2
272,734	-0,93
272,995	0,66
273,256	0,75
273,516	3,64
273,777	-0,37
274,038	2,13
274,298	-0,43
274,559	-1,05
274,82	4,01
275,08	7,26
275,341	9,88
275,601	8,97
275,862	6,17
276,122	5,79
276,383	7,27
276,643	8,32
276,904	6,27
277,164	10,04
277,425	10,82
277,685	15,2
277,946	16,03
278,206	16,99
278,467	18,37
278,727	17,97
278,987	17,58
279,248	17,23
279,508	20,13
279,768	22,68
280,029	24,9
280,289	22,25
280,549	20,73
280,81	19,17
281,07	18,31
281,33	20,3
281,59	18,81
281,851	22,3
282,111	22,07
282,371	20,21
282,631	21,45
282,891	19,27
283,151	17,44
283,412	14,32
283,672	12,83
283,932	12,94
284,192	14,56
284,452	12,88
284,712	10,08
284,972	9,86
285,232	6,63
285,492	9,88
285,752	6,37
286,012	11,74
286,272	13,67
286,532	10,91
286,792	11,03
287,052	12,25
287,312	12,7
287,571	10,1
287,831	9,74
288,091	6,12
288,351	6,04
288,611	11,17
288,871	11,38
289,13	11
289,39	6,37
289,65	7,04
289,91	5
290,17	6,65
290,429	11,63
290,689	8,8
290,949	5,18
291,208	6,99
291,468	10,16
291,728	12,45
291,987	15,56
292,247	14,96
292,506	16,79
292,766	20,06
293,026	18,49
293,285	20,4
293,545	22,57
293,804	22,88
294,064	18,78
294,323	14,91
294,583	15,9
294,842	17,24
295,102	17,33
295,361	17,65
295,621	20,16
295,88	22,01
296,139	21,52
296,399	23,2
296,658	16,55
296,917	15,96
297,177	12,97
297,436	15,38
297,695	12,88
297,955	13,35
298,214	12,51
298,473	13,19
298,732	15,42
298,992	19,25
299,251	18,72
299,51	14,83
299,769	15,72
300,028	13,71
300,287	14,07
300,547	14,62
300,806	12,43
301,065	15,21
301,324	17,72
301,583	13,43
301,842	9,92
302,101	7,89
302,36	10,27
302,619	9,16
302,878	8,76
303,137	6,76
303,396	7,38
303,655	7,94
303,914	4,15
304,173	5,97
304,432	4,14
304,691	7,7
304,95	5,15
305,208	10,26
305,467	10,12
305,726	11,06
305,985	12,74
306,244	13,48
306,503	12,92
306,761	11,49
307,02	8,29
307,279	8,92
307,537	10,44
307,796	6,11
308,055	5,56
308,314	5,36
308,572	4,59
308,831	6,09
309,09	5,99
309,348	4,59
309,607	4,09
309,865	8,78
310,124	8,72
310,382	9,04
310,641	10,46
310,9	9,48
311,158	10,91
311,417	11,98
311,675	12,51
311,933	13,62
312,192	13,97
312,45	14,1
312,709	15,54
312,967	15,7
313,226	15,02
313,484	14,27
313,742	12,49
314,001	9,34
314,259	7,88
314,517	7,06
314,776	9,24
315,034	11,86
315,292	9,21
315,55	7,25
315,809	7,82
316,067	6,96
316,325	4,91
316,583	5
316,841	3,45
317,1	2,47
317,358	-0,74
317,616	-1,23
317,874	-2,05
318,132	-3,42
318,39	-2,55
318,648	-2,72
318,906	-3,15
319,164	-4,7
319,422	-6,62
319,68	-8,32
319,938	-8,4
320,196	-8,39
320,454	-6,59
320,712	-7,71
320,97	-6,24
321,228	-8,93
321,486	-6,7
321,744	-5,47
322,002	-2,2
322,26	-2,94
322,517	-1,93
322,775	-4,8
323,033	-6,14
323,291	-3,6
323,549	-1,6
323,806	-0,03
324,064	0,86
324,322	3,75
324,58	1,98
324,837	4,87
325,095	2,17
325,353	4,84
325,61	6,31
325,868	5,48
326,126	8,57
326,383	6,81
326,641	3,72
326,898	3,41
327,156	4,93
327,413	5,98
327,671	6,51
327,928	9,45
328,186	9,34
328,443	8,79
328,701	12,17
328,958	12,63
329,216	14,07
329,473	11,55
329,731	12,45
329,988	12,17
330,245	13,8
330,503	14,79
330,76	16,41
331,017	18,6
331,275	16,6
331,532	15,27
331,789	13,15
332,047	13,27
332,304	8,2
332,561	9,49
332,818	6,48
333,076	8,72
333,333	10,05
333,59	11,3
333,847	12,64
334,104	11,31
334,361	11,14
334,618	12,12
334,876	11,74
335,133	10,92
335,39	8,79
335,647	10,39
335,904	7,76
336,161	6,56
336,418	6,06
336,675	2,41
336,932	3,47
337,189	2,33
337,446	2,26
337,703	1,38
337,96	-3,29
338,216	-3,59
338,473	-7,62
338,73	-7,55
338,987	-7,98
339,244	-4,25
339,501	-4,6
339,757	-3,06
340,014	-2,51
340,271	-0,04
340,528	0,84
340,785	6,47
341,041	6,76
341,298	4,14
341,555	3,36
341,811	2,33
342,068	0,22
342,325	-1,32
342,581	1,47
342,838	3,36
343,094	3,43
343,351	3,21
343,608	0,32
343,864	2,03
344,121	3,86
344,377	2,24
344,634	1,09
344,89	-1,37
345,147	-0,8
345,403	-0,86
345,66	-0,42
345,916	2,64
346,172	1,29
346,429	2,17
346,685	-0,82
346,942	-0,43
347,198	-5,71
347,454	-4,45
347,711	-3,73
347,967	-5,68
348,223	-4,22
348,48	-5,5
348,736	-3,14
348,992	-3,57
349,248	-1,26
349,504	-1,76
349,761	-0,99
350,017	0,36
350,273	1,51
350,529	0,36
350,785	-0,08
351,041	-0,59
351,297	1,73
351,554	0,8
351,81	-1,8
352,066	-3,92
352,322	-2,32
352,578	-0,83
352,834	-1,62
353,09	-2,34
353,346	-0,71
353,602	-2,41
353,858	-3,77
354,114	-3,67
354,369	-2,65
354,625	1,09
354,881	-1,66
355,137	1,86
355,393	1,61
355,649	2,53
355,905	2,76
356,16	4,02
356,416	5,61
356,672	-0,47
356,928	-0,23
357,183	-1,1
357,439	-0,98
357,695	-4,15
357,951	0,01
358,206	-0,45
358,462	-0,8
358,718	-2,86
358,973	-2,24
359,229	-4,04
359,484	-3,51
359,74	0,17
359,996	1,22
360,251	3,76
360,507	3,51
360,762	5,09
361,018	8,27
361,273	6,09
361,529	7,76
361,784	8,89
362,04	10,64
362,295	10,11
362,55	9,78
362,806	14,16
363,061	14,79
363,316	14,96
363,572	14,42
363,827	16,83
364,082	12,97
364,338	11,94
364,593	12,42
364,848	13,6
365,104	13,15
365,359	16,88
365,614	17,74
365,869	14,75
366,124	14,78
366,38	12,77
366,635	14,81
366,89	16,1
367,145	17,59
367,4	22,15
367,655	21,73
367,91	23,45
368,165	21,97
368,42	17,96
368,675	18,65
368,93	17,95
369,185	14,82
369,44	14,24
369,695	14,74
369,95	13,8
370,205	11,37
370,46	10,22
370,715	7,92
370,97	7,5
371,225	8,58
371,48	10
371,734	9,5
371,989	11,15
372,244	10,74
372,499	11,66
372,754	10,28
373,008	7,1
373,263	1,45
373,518	4,06
373,773	1,98
374,027	0,54
374,282	3,74
374,537	4,2
374,791	6,18
375,046	4,51
375,301	1,61
375,555	-1,58
375,81	-1,6
376,064	-1,34
376,319	2,38
376,573	0,98
376,828	-1,45
377,082	2,63
377,337	0,2
377,591	-1,36
377,846	-1,55
378,1	3,14
378,355	3,5
378,609	2,68
378,863	0,64
379,118	1,75
379,372	-0,77
379,627	-3,69
379,881	-6,26
380,135	-7,06
380,389	-7,95
380,644	-6,69
380,898	-5,23
381,152	-3,73
381,407	-2,69
381,661	-0,82
381,915	2,07
382,169	1,91
382,423	0,57
382,677	-3,46
382,932	-2,56
383,186	-0,47
383,44	1,23
383,694	4,51
383,948	2,38
384,202	1,77
384,456	4,39
384,71	5,22
384,964	4,25
385,218	7,73
385,472	7,88
385,726	7,5
385,98	6,93
386,234	6,43
386,488	3,13
386,742	3,98
386,996	0,8
387,249	2
387,503	5,78
387,757	8,54
388,011	11,26
388,265	11,05
388,518	10,59
388,772	12,43
389,026	14,29
389,28	11,72
389,533	10,91
389,787	13,52
390,041	11,63
390,295	11,02
390,548	11,31
390,802	15,53
391,055	12,89
391,309	12,08
391,563	7,44
391,816	8,85
392,07	7,16
392,323	8,48
392,577	8,92
392,83	9,94
393,084	15,27
393,337	19,22
393,591	19,52
393,844	19,4
394,098	23,1
394,351	28,78
394,604	30,96
394,858	33,2
395,111	33,47
395,364	30,49
395,618	32,93
395,871	29,44
396,124	29,21
396,378	28,12
396,631	27,52
396,884	23,93
397,137	23,55
397,391	24,16
397,644	20,63
397,897	21,93
398,15	24,72
398,403	27,3
398,657	24,85
398,91	24,6
399,163	26,22
399,416	26,74
399,669	24,62
399,922	24,42
400,175	22
400,428	24
400,681	27,13
400,934	24,2
401,187	25,96
401,44	29,23
401,693	30,07
401,946	28,44
402,199	24,98
402,452	23,21
402,704	20,58
402,957	19,98
403,21	21,7
403,463	19,21
403,716	21,56
403,969	23,05
404,221	24,47
404,474	27,34
404,727	30,66
404,98	33,1
405,232	33,85
405,485	34,73
405,738	35,91
405,99	35,83
406,243	37,76
406,496	39,09
406,748	38,6
407,001	37,23
407,253	37,6
407,506	39,37
407,759	40,44
408,011	38,11
408,264	35,86
408,516	34,54
408,769	29,47
409,021	27,44
409,274	24,22
409,526	23,13
409,778	20,72
410,031	22,71
410,283	23,36
410,536	28,44
410,788	26,63
411,04	26,46
411,293	28,25
411,545	28,46
411,797	27,55
412,049	25,48
412,302	24,82
412,554	25,5
412,806	23,6
413,058	22,77
413,311	23,5
413,563	22,87
413,815	22,59
414,067	19,24
414,319	18,27
414,571	19,24
414,823	16,98
415,075	16,23
415,328	16,5
415,58	18,55
415,832	20,46
416,084	21,64
416,336	18,63
416,588	22,84
416,84	21,67
417,091	24,74
417,343	21,14
417,595	23,23
417,847	24,88
418,099	24,82
418,351	23,27
418,603	26,34
418,855	27,72
419,106	26,82
419,358	27,23
419,61	27,55
419,862	29,5
420,114	27,64
420,365	28,16
420,617	28,22
420,869	26,14
421,12	25,81
421,372	27,46
421,624	24,63
421,875	24,64
422,127	21,35
422,379	21,33
422,63	24,26
422,882	23,18
423,133	23,9
423,385	24,83
423,636	25,52
423,888	26,27
424,139	28,33
424,391	25,49
424,642	22,54
424,894	19,18
425,145	20,18
425,396	17,22
425,648	18,86
425,899	17,18
426,151	16,33
426,402	14,24
426,653	13,87
426,905	13,18
427,156	10,91
427,407	10,08
427,658	9,47
427,91	8,1
428,161	6,2
428,412	8,04
428,663	9,02
428,914	9,85
429,166	10,25
429,417	12,58
429,668	11,97
429,919	10,29
430,17	9,23
430,421	9,13
430,672	12,17
430,923	12,08
431,174	11,65
431,425	13,48
431,676	18,2
431,927	20,6
432,178	29,44
432,429	37,42
432,68	43,2
432,931	51,7
433,182	58,37
433,433	56,88
433,683	60,19
433,934	61,04
434,185	61,56
434,436	60,37
434,687	61,73
434,937	63,46
435,188	61,77
435,439	60,18
435,69	61,01
435,94	60,98
436,191	61,87
436,442	60,56
436,692	58,9
436,943	56,58
437,194	53,78
437,444	55,87
437,695	60,43
437,945	61,95
438,196	61,33
438,447	60,95
438,697	59,6
438,948	57,52
439,198	52,17
439,449	42,84
439,699	39,87
439,949	32,41
440,2	24,3
440,45	19,69
440,701	12,57
440,951	8,21
441,201	7,02
441,452	3,79
441,702	2,93
441,952	3,08
442,203	2,09
442,453	-0,33
442,703	0,09
442,953	1,66
443,204	3,2
443,454	1,05
443,704	1,9
443,954	-1,98
444,204	-0,6
444,455	0,15
444,705	1,14
444,955	2,44
445,205	0,93
445,455	-1,87
445,705	-1,91
445,955	-2,72
446,205	-4,41
446,455	-3,8
446,705	-3,39
446,955	-2,73
447,205	-1,41
447,455	-1,74
447,705	-4,5
447,955	-6,6
448,205	-5,78
448,454	-5,85
448,704	-5,22
448,954	-7,29
449,204	-6,27
449,454	-7,1
449,704	-9,95
449,953	-9,5
450,203	-9,59
450,453	-12,18
450,703	-10,89
450,952	-13,14
451,202	-11,58
451,452	-13,13
451,701	-9,88
451,951	-7,02
452,201	-7,36
452,45	-9,11
452,7	-8,42
452,949	-8,86
453,199	-10,49
453,448	-9,83
453,698	-8,04
453,947	-8,84
454,197	-10,15
454,446	-11,4
454,696	-9,26
454,945	-8,14
455,195	-9,19
455,444	-7,61
455,693	-1,83
455,943	-4,44
456,192	-3,81
456,442	-4,52
456,691	-3,94
456,94	-6,19
457,189	-7,03
457,439	-3,26
457,688	-1,53
457,937	-0,81
458,186	1,79
458,436	1,99
458,685	3,29
458,934	2,47
459,183	1,83
459,432	4,1
459,681	5,34
459,93	4,09
460,179	3,19
460,429	1,57
460,678	4,84
460,927	8,52
461,176	7,68
461,425	6,3
461,674	8,94
461,923	9,06
462,172	8,15
462,42	8,16
462,669	9,76
462,918	10,91
463,167	10,35
463,416	6,82
463,665	8,82
463,914	9,36
464,162	8,42
464,411	10,1
464,66	13,24
464,909	11,71
465,158	10,29
465,406	9,08
465,655	11,26
465,904	12,08
466,152	11,71
466,401	12,83
466,65	15,15
466,898	14,66
467,147	9,74
467,395	7,2
467,644	8,47
467,893	8,59
468,141	8,58
468,39	6
468,638	4,63
468,887	2,18
469,135	1,76
469,384	0,92
469,632	2,72
469,88	3,1
470,129	5,13
470,377	1,82
470,626	2,87
470,874	5,66
471,122	7,92
471,371	6,48
471,619	4,55
471,867	7,07
472,115	6,22
472,364	4,39
472,612	8,62
472,86	7,16
473,108	7,19
473,356	8,16
473,605	5,94
473,853	3,29
474,101	2,7
474,349	0,39
474,597	3,41
474,845	2,59
475,093	2,11
475,341	0,26
475,589	0,46
475,837	1,68
476,085	2,59
476,333	1,04
476,581	4,09
476,829	3,14
477,077	6,39
477,325	4,61
477,573	7,1
477,821	4,77
478,069	6,76
478,317	5,38
478,564	7
478,812	4,83
479,06	4,01
479,308	2,6
479,555	3,62
479,803	4,17
480,051	5,63
480,299	4,98
480,546	6,7
480,794	5,97
481,042	6,23
481,289	7,5
481,537	9,99
481,784	9,97
482,032	14,86
482,28	15,25
482,527	16,11
482,775	17,75
483,022	21,57
483,27	24,8
483,517	29,54
483,765	29,88
484,012	31,56
484,259	30,86
484,507	35,57
484,754	35,86
485,002	37,69
485,249	36,55
485,496	40,1
485,744	39,93
485,991	41,33
486,238	39,63
486,486	44,45
486,733	45,69
486,98	50,62
487,227	48,28
487,474	49,1
487,722	51,66
487,969	50,27
488,216	50,86
488,463	51,2
488,71	48,86
488,957	47,55
489,204	47,69
489,451	48,95
489,699	46
489,946	42,2
490,193	41,37
490,44	40,29
490,687	41,13
490,934	38,42
491,18	33,38
491,427	34,06
491,674	36,14
491,921	36,88
492,168	34,92
492,415	31,25
492,662	31,11
492,909	33,35
493,155	31,64
493,402	30,91
493,649	29,11
493,896	29,92
494,142	24,17
494,389	23,17
494,636	20,2
494,883	17,52
495,129	14,88
495,376	12,94
495,623	13,33
495,869	14,23
496,116	15,44
496,362	17,42
496,609	20,94
496,855	25,84
497,102	23,96
497,348	23,87
497,595	25,58
497,841	30,34
498,088	28,56
498,334	26,18
498,581	24,12
498,827	24,02
499,074	24,05
499,32	25,01
499,566	27,69
499,813	28,03
500,059	26,13
500,305	25,98
500,552	24,81
500,798	25,28
501,044	27,86
501,29	25,49
501,537	20,9
501,783	23,37
502,029	26,92
502,275	23,23
502,521	23,2
502,767	24,5
503,013	27,56
503,26	25,12
503,506	21,09
503,752	21,52
503,998	18,45
504,244	16,5
504,49	12,25
504,736	13,41
504,982	12,17
505,228	14,19
505,474	14,34
505,72	15,56
505,966	14,07
506,211	17,03
506,457	17,79
506,703	14,42
506,949	11,35
507,195	9,02
507,441	4,77
507,686	8,88
507,932	9,05
508,178	10,71
508,424	6,52
508,669	4,31
508,915	5,3
509,161	9,49
509,406	11,07
509,652	8,64
509,898	12,64
510,143	12,89
510,389	11,13
510,634	6,05
510,88	8,88
511,125	12,5
511,371	13,6
511,616	14,31
511,862	12,51
512,107	9,82
512,353	9,85
512,598	10,47
512,844	6,78
513,089	2,42
513,335	3,63
513,58	2,39
513,825	2,29
514,071	0,9
514,316	1,16
514,561	2,79
514,806	0,39
515,052	3,77
515,297	0,97
515,542	1,26
515,787	0,12
516,033	3,21
516,278	3,84
516,523	3,41
516,768	0,4
517,013	-2,08
517,258	-2,83
517,503	-3,52
517,748	-2,64
517,993	-3,27
518,238	-2,55
518,483	-4,42
518,728	-6,02
518,973	-9
519,218	-9,64
519,463	-9,15
519,708	-9,49
519,953	-10,47
520,198	-10,84
520,443	-7,54
520,688	-3,53
520,933	-4,35
521,177	-4,26
521,422	-6,76
521,667	-4,18
521,912	-4,51
522,157	-8,39
522,401	-5,25
522,646	-4,79
522,891	-3,92
523,135	-3,5
523,38	-3,9
523,625	-5,7
523,869	-4,96
524,114	-3,58
524,358	-2,48
524,603	-4,02
524,848	-5,27
525,092	-5,57
525,337	-4,17
525,581	-1,62
525,826	0,62
526,07	2,82
526,315	4,42
526,559	3,13
526,803	3,64
527,048	6,56
527,292	7,5
527,537	8,18
527,781	8,23
528,025	5,81
528,269	5,54
528,514	6,06
528,758	5,58
529,002	7,19
529,247	10,22
529,491	9,1
529,735	14,06
529,979	13,14
530,223	14,09
530,467	11,04
530,712	9,16
530,956	9,76
531,2	10,97
531,444	10,33
531,688	12,48
531,932	11,59
532,176	14,35
532,42	15,81
532,664	16,93
532,908	16,47
533,152	15,46
533,396	13,3
533,64	12,74
533,884	10,17
534,128	11,82
534,371	13,27
534,615	14,96
534,859	15,07
535,103	14,77
535,347	16,73
535,59	18,32
535,834	17,28
536,078	19,72
536,322	23,71
536,565	29,42
536,809	29,32
537,053	36,12
537,296	37,9
537,54	43,25
537,784	47,38
538,027	55,06
538,271	60,21
538,514	64,62
538,758	70,82
539,001	74,64
539,245	80,09
539,488	86,82
539,732	95,13
539,975	101,36
540,219	110,42
540,462	114,88
540,706	121,98
540,949	126,75
541,192	132,32
541,436	144,54
541,679	154,61
541,922	162,06
542,166	166,29
542,409	176,11
542,652	188,15
542,895	198,72
543,139	209,27
543,382	220,83
543,625	228
543,868	233,56
544,111	236,33
544,354	238,75
544,598	239,59
544,841	240,39
545,084	239,45
545,327	237,09
545,57	236,54
545,813	235,62
546,056	232,11
546,299	228,66
546,542	227,35
546,785	224,26
547,028	221,13
547,271	214,36
547,514	209,88
547,756	202,45
547,999	199,75
548,242	196,22
548,485	190,97
548,728	186,11
548,971	176,28
549,213	171,72
549,456	163,93
549,699	155,22
549,942	145,88
550,184	134,41
550,427	124,8
550,67	113,93
550,912	100,14
551,155	92,46
551,398	85,25
551,64	77,93
551,883	73,4
552,125	68,37
552,368	64,51
552,61	57,44
552,853	57,25
553,095	53,35
553,338	49,42
553,58	47,67
553,823	43,19
554,065	44,36
554,308	39,36
554,55	35,09
554,792	31,64
555,035	28,99
555,277	25,49
555,519	23,91
555,762	19,22
556,004	18,99
556,246	14,73
556,488	14,34
556,731	9,79
556,973	10,45
557,215	9,99
557,457	9,94
557,699	11,84
557,941	6,08
558,183	5,02
558,426	7,88
558,668	3,77
558,91	4,03
559,152	3,45
559,394	1,9
559,636	1,9
559,878	2,25
560,12	1,14
560,362	0,73
560,604	0,36
560,845	-0,19
561,087	-2,46
561,329	0,66
561,571	-3,39
561,813	-2,4
562,055	-3,44
562,297	-3,73
562,538	-2,22
562,78	1,15
563,022	-1,29
563,264	0,56
563,505	1,22
563,747	2,43
563,989	0,35
564,23	-0,98
564,472	-3,93
564,714	-1,94
564,955	-1,29
565,197	-4,54
565,438	-2,31
565,68	0,63
565,921	-1,79
566,163	0,27
566,404	-1,55
566,646	-0,46
566,887	1,58
567,129	4,09
567,37	1,62
567,612	4,78
567,853	1,88
568,094	2,09
568,336	2,82
568,577	4,98
568,818	5,78
569,06	3,8
569,301	0,15
569,542	1,27
569,783	4,01
570,025	3,58
570,266	2,2
570,507	3,76
570,748	3,07
570,989	4,4
571,23	6,51
571,472	7,02
571,713	6,67
571,954	8,42
572,195	7,16
572,436	8,93
572,677	11,39
572,918	14,98
573,159	14,55
573,4	13,62
573,641	12,85
573,882	15,39
574,123	15,76
574,364	11,77
574,604	11,78
574,845	12,09
575,086	12,96
575,327	14,07
575,568	14,26
575,809	15,15
576,049	15,34
576,29	12,66
576,531	18,53
576,771	25,14
577,012	29,46
577,253	30,66
577,494	29,83
577,734	31,37
577,975	33,04
578,215	34,73
578,456	32,52
578,697	33,12
578,937	35,08
579,178	36,07
579,418	34,98
579,659	35,39
579,899	32,44
580,14	31,73
580,38	31,68
580,62	30,92
580,861	34,33
581,101	34,96
581,342	34,85
581,582	28,88
581,822	30,68
582,063	30,06
582,303	30,79
582,543	31,71
582,783	33,53
583,024	36,74
583,264	39,41
583,504	36,9
583,744	40,2
583,984	39,26
584,224	39,96
584,465	36,47
584,705	36,33
584,945	38,17
585,185	38,66
585,425	39,28
585,665	38,18
585,905	37,6
586,145	37,86
586,385	36,89
586,625	39,58
586,865	40,58
587,105	40,13
587,345	41,44
587,585	41,32
587,824	37,83
588,064	38,31
588,304	36,26
588,544	36,07
588,784	34,02
589,024	38,46
589,263	38,61
589,503	37,62
589,743	41,95
589,982	40,52
590,222	41,06
590,462	37,99
590,701	34,39
590,941	37,17
591,181	34,71
591,42	32,15
591,66	32,75
591,899	37,26
592,139	35,35
592,378	34,63
592,618	32,86
592,857	31,61
593,097	31,61
593,336	31,88
593,576	30,66
593,815	30,99
594,055	30
594,294	29,39
594,533	28,28
594,773	28,27
595,012	28,75
595,251	30,18
595,491	32,52
595,73	33,99
595,969	34,4
596,208	35,45
596,447	38,43
596,687	39,95
596,926	39,19
597,165	34,36
597,404	36
597,643	33,09
597,882	31,09
598,121	32,87
598,36	33,46
598,599	34,62
598,838	34,4
599,077	30,41
599,316	28,47
599,555	27,23
599,794	28,76
600,033	30,25
600,272	31,88
600,511	30,96
600,75	32,59
600,989	33,97
601,228	33,73
601,466	31,95
601,705	31,85
601,944	33,34
602,183	35,04
602,422	34,67
602,66	34,75
602,899	32,15
603,138	33,3
603,376	32,39
603,615	33,12
603,854	32,91
604,092	31,83
604,331	34,65
604,569	36,47
604,808	34,88
605,047	36,67
605,285	37,54
605,524	37,9
605,762	36,29
606	39,01
606,239	42,63
606,477	45,57
606,716	45,09
606,954	50,58
607,193	54,06
607,431	59,96
607,669	67,73
607,908	80,55
608,146	97,21
608,384	110,29
608,622	123,84
608,861	137,27
609,099	149,89
609,337	159,21
609,575	167,76
609,813	177,74
610,052	185,69
610,29	189,73
610,528	193,26
610,766	198,83
611,004	203,99
611,242	205,25
611,48	210,07
611,718	210
611,956	212,56
612,194	214,83
612,432	216,9
612,67	217,99
612,908	220,23
613,146	220,59
613,384	219,55
613,621	217,19
613,859	216,65
614,097	214,83
614,335	211,11
614,573	207,13
614,811	200,73
615,048	190,88
615,286	179,02
615,524	162,79
615,761	147,08
615,999	134,9
616,237	122,51
616,474	113,13
616,712	105,08
616,95	93,97
617,187	85,72
617,425	79,04
617,662	74,77
617,9	67,89
618,137	60,44
618,375	53,86
618,612	49,09
618,85	46,09
619,087	45,72
619,325	41,97
619,562	37,81
619,799	33,93
620,037	31,85
620,274	29,15
620,511	29,9
620,749	25,98
620,986	23,71
621,223	20,06
621,461	20,1
621,698	22,22
621,935	20,61
622,172	19,4
622,409	22,36
622,647	21,32
622,884	20,68
623,121	22,84
623,358	21,44
623,595	21,12
623,832	20,69
624,069	19,26
624,306	21,23
624,543	22,47
624,78	23,4
625,017	21,71
625,254	25,05
625,491	28,58
625,728	30,94
625,965	31,8
626,202	30,97
626,438	28,5
626,675	28,02
626,912	31,46
627,149	32,97
627,386	34,7
627,622	35,18
627,859	35,3
628,096	38,08
628,333	39,56
628,569	42,62
628,806	45
629,043	43,68
629,279	45,02
629,516	47,48
629,752	42,11
629,989	44,06
630,225	41,67
630,462	41,55
630,699	41,18
630,935	42,53
631,171	40,73
631,408	40,15
631,644	37,55
631,881	33,99
632,117	31,38
632,354	33,4
632,59	31,55
632,826	30,05
633,063	29,27
633,299	29,5
633,535	24,95
633,771	24,3
634,008	26,93
634,244	24,97
634,48	23,34
634,716	23,57
634,953	21,31
635,189	20,19
635,425	20,28
635,661	22,13
635,897	19,07
636,133	15,89
636,369	13,89
636,605	9,66
636,841	6,7
637,077	8,91
637,313	7,17
637,549	7,92
637,785	5,71
638,021	5,46
638,257	2,51
638,493	3,55
638,729	1,45
638,965	4,97
639,2	7,03
639,436	5,9
639,672	4,52
639,908	1,74
640,144	7,03
640,379	9,31
640,615	6,81
640,851	10,33
641,086	12,26
641,322	11
641,558	12,61
641,793	13,11
642,029	11,3
642,264	9,17
642,5	8,79
642,736	4,95
642,971	5,22
643,207	4,41
643,442	3,13
643,678	3,25
643,913	5,44
644,148	4,44
644,384	7,88
644,619	7,58
644,855	8,38
645,09	9,01
645,325	9,9
645,561	10,16
645,796	7,41
646,031	11,11
646,266	7,46
646,502	5,49
646,737	7,9
646,972	8,14
647,207	9,53
647,442	6,03
647,678	3,92
647,913	9
648,148	10,07
648,383	8,89
648,618	8,44
648,853	8,29
649,088	10,81
649,323	13,49
649,558	15,99
649,793	17,08
650,028	18
650,263	14,15
650,498	16,63
650,733	17,92
650,968	17,84
651,202	20,2
651,437	19,04
651,672	14,05
651,907	14,3
652,142	15,91
652,376	18,39
652,611	18,81
652,846	20,2
653,081	20,79
653,315	20,02
653,55	20,99
653,785	21,14
654,019	23,23
654,254	21,96
654,488	23,01
654,723	18,6
654,958	16,03
655,192	12,34
655,427	9,77
655,661	10,94
655,896	13,23
656,13	14,67
656,364	11,12
656,599	8,32
656,833	11,29
657,068	12,81
657,302	13,29
657,536	12,05
657,771	14
658,005	14,66
658,239	16,1
658,474	13,23
658,708	15,48
658,942	16,88
659,176	14,6
659,41	11,49
659,645	9,52
659,879	9,33
660,113	6,41
660,347	5,99
660,581	3,17
660,815	3,42
661,049	2,17
661,283	-2,49
661,517	-4,81
661,751	-6,15
661,985	-6,43
662,219	-5,42
662,453	-5,96
662,687	-5,44
662,921	-8,78
663,155	-11,02
663,389	-17,28
663,622	-17,55
663,856	-14,89
664,09	-18,65
664,324	-19,06
664,558	-18,7
664,791	-18,64
665,025	-20,63
665,259	-20,46
665,492	-21,99
665,726	-19,45
665,96	-20,13
666,193	-21,67
666,427	-19,42
666,661	-19,05
666,894	-20,44
667,128	-21,4
667,361	-18,3
667,595	-18,45
667,828	-17,64
668,062	-18,7
668,295	-18,41
668,529	-16,84
668,762	-13,81
668,995	-14,48
669,229	-9,92
669,462	-9,94
669,695	-10
669,929	-11,55
670,162	-11,07
670,395	-13,05
670,629	-11,15
670,862	-8,82
671,095	-13,76
671,328	-12,3
671,561	-15,01
671,795	-14,63
672,028	-13,22
672,261	-13,22
672,494	-11,35
672,727	-12,78
672,96	-11,13
673,193	-11,84
673,426	-6,73
673,659	-7
673,892	-6,9
674,125	-6,04
674,358	-5,67
674,591	-8,32
674,824	-8,64
675,057	-9,02
675,29	-9,9
675,523	-7,39
675,755	-6,91
675,988	-6,75
676,221	-2,72
676,454	-5,36
676,687	-4,21
676,919	-4,21
677,152	-2,99
677,385	-2,3
677,617	0,26
677,85	1,67
678,083	-0,75
678,315	3,23
678,548	1,56
678,78	0,63
679,013	0,27
679,246	1,58
679,478	3,66
679,711	0,75
679,943	4,55
680,175	1,59
680,408	5,57
680,64	0,62
680,873	1,92
681,105	3,05
681,338	5,61
681,57	4,5
681,802	7,36
682,034	7,29
682,267	10,02
682,499	12,01
682,731	8,87
682,964	7,11
683,196	4,32
683,428	1,62
683,66	1,34
683,892	4,08
684,124	6,16
684,356	9,22
684,589	9,49
684,821	7,76
685,053	6,26
685,285	8,32
685,517	10,66
685,749	11,5
685,981	14,32
686,213	15,93
686,445	15,81
686,676	12,05
686,908	12,69
687,14	8,89
687,372	9,58
687,604	5,34
687,836	7,1
688,068	6,53
688,299	5,32
688,531	3,76
688,763	8,29
688,995	6,49
689,226	10,56
689,458	8,27
689,69	7,16
689,921	6,6
690,153	7,26
690,384	9,75
690,616	8,73
690,848	9,7
691,079	6,86
691,311	5,47
691,542	2,26
691,774	0,99
692,005	3,94
692,237	8,33
692,468	5,46
692,699	3,47
692,931	2,52
693,162	-1,59
693,393	-3,33
693,625	-5,3
693,856	-3,24
694,087	-2,58
694,319	-0,86
694,55	-1,65
694,781	-1,14
695,012	-1,55
695,243	-4,06
695,475	-3,63
695,706	-3,16
695,937	-4,29
696,168	-5,66
696,399	-7,85
696,63	-7,19
696,861	-8,15
697,092	-2,58
697,323	0,65
697,554	1,31
697,785	1,88
698,016	2,79
698,247	1,4
698,478	1,78
698,709	3,43
698,94	6,12
699,171	6,25
699,401	2,7
699,632	4,82
699,863	1,88
700,094	3,3
700,325	7,26
700,555	8,79
700,786	11,28
701,017	10,81
701,247	9,9
701,478	11,25
701,709	12,36
701,939	11,37
702,17	13,12
702,401	17,37
702,631	17,66
702,862	16,42
703,092	13,87
703,323	18,36
703,553	20,04
703,784	20,41
704,014	22,1
704,244	16,9
704,475	15,43
704,705	16,17
704,936	17,54
705,166	17,31
705,396	19,69
705,627	20,51
705,857	21,42
706,087	21,44
706,317	19,49
706,548	18,63
706,778	17,99
707,008	19,08
707,238	19,95
707,468	18,1
707,698	16,01
707,928	14,58
708,158	13,29
708,389	12,7
708,619	12,02
708,849	10,23
709,079	11,83
709,309	10,94
709,539	8,4
709,768	9,56
709,998	11,9
710,228	12,18
710,458	9,18
710,688	5,8
710,918	5,08
711,148	4,44
711,378	5,08
711,607	2,82
711,837	3,5
712,067	2,38
712,297	2,28
712,526	0,39
712,756	0,78
712,986	-3,35
713,215	-5,68
713,445	-4,09
713,674	-2,82
713,904	-2,91
714,134	-0,32
714,363	-1,94
714,593	-3,23
714,822	-3,49
715,052	-3,94
715,281	-2,46
715,511	-3,22
715,74	-3,67
715,969	-4,16
716,199	-5,07
716,428	-6,4
716,657	-6,84
716,887	-5,28
717,116	-8,07
717,345	-7,26
717,575	-6,25
717,804	-5,76
718,033	-6,51
718,262	-8,26
718,492	-7,82
718,721	-6,52
718,95	-7,49
719,179	-10,07
719,408	-9,32
719,637	-11,44
719,866	-13,59
720,095	-9,96
720,324	-10,56
720,553	-17,17
720,782	-19,39
721,011	-19,09
721,24	-21,11
721,469	-22,7
721,698	-22,11
721,927	-22,78
722,156	-23,44
722,385	-23,99
722,613	-20,27
722,842	-19,59
723,071	-16,08
723,3	-14,7
723,529	-14,63
723,757	-14,44
723,986	-18,16
724,215	-19,47
724,443	-17,75
724,672	-14,89
724,901	-13,56
725,129	-11,16
725,358	-7,14
725,586	-9,66
725,815	-9,71
726,043	-11,6
726,272	-11,6
726,5	-12,93
726,729	-11,16
726,957	-13,84
727,186	-16,61
727,414	-15,47
727,642	-12,15
727,871	-11,62
728,099	-12,47
728,327	-12,51
728,556	-9,63
728,784	-8,31
729,012	-9,86
729,241	-7,34
729,469	-7,57
729,697	-10,96
729,925	-10,38
730,153	-11,92
730,381	-12,81
730,61	-14,15
730,838	-15,79
731,066	-14,63
731,294	-14,14
731,522	-17,69
731,75	-23,36
731,978	-24,75
732,206	-26,9
732,434	-28,4
732,662	-26,27
732,89	-28,04
733,118	-27,75
733,346	-26,79
733,573	-26,17
733,801	-26,72
734,029	-18,82
734,257	-18,2
734,485	-13,83
734,712	-11,77
734,94	-12,61
735,168	-9,38
735,396	-9,9
735,623	-11,7
735,851	-11,44
736,078	-7,79
736,306	-7,36
736,534	-7,46
736,761	-6,2
736,989	-8,89
737,216	-11,1
737,444	-11,9
737,671	-9,95
737,899	-4,71
738,126	-4,7
738,354	-5,18
738,581	-4,03
738,809	-2,45
739,036	-4,07
739,263	-2,52
739,491	-4,12
739,718	-4,35
739,945	0,53
740,173	2,42
740,4	2,6
740,627	0,82
740,854	1,66
741,081	-1,88
741,309	-2,89
741,536	-7,66
741,763	-8,66
741,99	-6,79
742,217	-6,9
742,444	-6,59
742,671	-4,18
742,898	-3,38
743,125	-6,1
743,352	-9,04
743,579	-9,81
743,806	-9,85
744,033	-6,9
744,26	-5,85
744,487	-6,06
744,714	-4,89
744,941	-5,68
745,167	-2,21
745,394	-1,62
745,621	-1,69
745,848	-0,68
746,075	2
746,301	5,51
746,528	9,71
746,755	8,32
746,981	7,19
747,208	7,86
747,435	9,7
747,661	11,11
747,888	12,49
748,114	10,31
748,341	13,74
748,567	16,02
748,794	14,3
749,02	12,9
749,247	9,67
749,473	8,3
749,7	7,53
749,926	7,21
750,152	10,76
750,379	12,24
750,605	13,32
750,831	11,94
751,058	9,94
751,284	9,28
751,51	11,9
751,737	12,44
751,963	10,29
752,189	8,38
752,415	7,77
752,641	6,59
752,867	7,08
753,094	5,26
753,32	2,26
753,546	0,8
753,772	3,94
753,998	2,59
754,224	1,62
754,45	1,21
754,676	0,11
754,902	-2,22
755,128	-2,36
755,354	-3,59
755,579	-3,21
755,805	-0,73
756,031	-2,11
756,257	-2,77
756,483	-3,09
756,709	-5,89
756,934	-5,64
757,16	-7,79
757,386	-9,15
757,612	-12,29
757,837	-12,45
758,063	-7,71
758,289	-4,28
758,514	-6,02
758,74	-9,77
758,965	-12,99
759,191	-12
759,416	-10,27
759,642	-8,67
759,868	-10,11
760,093	-7,22
760,318	-7,95
760,544	-8,13
760,769	-10,06
760,995	-9,08
761,22	-9,17
761,445	-7,34
761,671	-4,27
761,896	-0,79
762,121	-0,12
762,347	-0,33
762,572	-2,46
762,797	-3,12
763,022	-1,88
763,248	3,24
763,473	5,05
763,698	5,51
763,923	5,23
764,148	4,42
764,373	5,89
764,598	8,47
764,823	10,97
765,048	4,93
765,273	1,09
765,498	-0,16
765,723	1,13
765,948	4,15
766,173	2,68
766,398	3,46
766,623	1,4
766,848	1,08
767,073	-2,01
767,298	-1,85
767,522	-3,14
767,747	-1,95
767,972	-4,28
768,197	-4,36
768,421	-5,76
768,646	-10,39
768,871	-13,8
769,095	-13,34
769,32	-13,14
769,545	-13,75
769,769	-12,61
769,994	-10,1
770,218	-14,09
770,443	-12,21
770,667	-11,04
770,892	-10,72
771,116	-10,26
771,341	-9,72
771,565	-10,35
771,79	-10,53
772,014	-10,44
772,238	-11,7
772,463	-9,19
772,687	-9,8
772,911	-10,8
773,136	-12,55
773,36	-12,45
773,584	-10,4
773,808	-12,78
774,033	-12,64
774,257	-12,04
774,481	-13,12
774,705	-13,13
774,929	-13,22
775,153	-12,17
775,377	-11,52
775,602	-11,02
775,826	-9,41
776,05	-6,3
776,274	-6,17
776,498	-5,87
776,722	-5,92
776,945	-6,09
777,169	-5,22
777,393	-8,23
777,617	-9,36
777,841	-8,46
778,065	-7,61
778,289	-9,47
778,512	-9,4
778,736	-9,97
778,96	-10,03
779,184	-7,54
779,407	-8,39
779,631	-6,52
779,855	-8,39
780,078	-5,92
780,302	-9,04
780,526	-11,9
780,749	-9,77
780,973	-6,51
781,196	-7,61
781,42	-8,49
781,643	-8,76
781,867	-6,36
782,09	-9,58
782,314	-9,11
782,537	-7,83
782,76	-9,23
782,984	-8,85
783,207	-11,13
783,431	-10,69
783,654	-12,25
783,877	-15,08
784,1	-15,95
784,324	-16,17
784,547	-16,08
784,77	-20,91
784,993	-22,83
785,216	-23,86
785,44	-24,14
785,663	-25,38
785,886	-22,58
786,109	-21,73
786,332	-21
786,555	-20,46
786,778	-17,89
787,001	-18,35
787,224	-15,75
787,447	-14,27
787,67	-12,77
787,893	-13,47
788,116	-12,25
788,339	-10,39
788,561	-11,35
788,784	-16,14
789,007	-16,55
789,23	-19,01
789,453	-20,87
789,675	-22,79
789,898	-25,72
790,121	-26,37
790,344	-26,93
790,566	-24,86
790,789	-23,97
791,012	-24,35
791,234	-21,59
791,457	-18,22
791,679	-16,18
791,902	-14,92
792,124	-14
792,347	-13,96
792,569	-13,88
792,792	-16,94
793,014	-14,28
793,237	-13,1
793,459	-13,92
793,681	-14
793,904	-14,36
794,126	-16,86
794,348	-16,74
794,571	-15,4
794,793	-18,42
795,015	-18,28
795,237	-19,61
795,46	-19,07
795,682	-17,12
795,904	-14,77
796,126	-15,8
796,348	-15,61
796,57	-11,31
796,792	-11,6
797,014	-6,27
797,237	-3,58
797,459	-2,87
797,681	-1,65
797,903	-1,66
798,124	-0,28
798,346	10,54
798,568	11,94
798,79	15,76
799,012	16,8
799,234	16,64
799,456	17,79
799,678	20,67
799,899	16,89
800,121	13,63
800,343	12,64
800,565	13,27
800,786	13,11
801,008	15,88
801,23	14,81
801,451	15,42
801,673	15,02
801,895	13,69
802,116	16,6
802,338	17,72
802,559	17,71
802,781	16,28
803,002	18,57
803,224	21,54
803,445	20,17
803,667	22,15
803,888	18,82
804,109	18,42
804,331	15,42
804,552	15,33
804,773	16,48
804,995	13,09
805,216	-0,8
805,437	-3,39
805,658	-6,99
805,88	-8,55
806,101	-7,35
806,322	-6,83
806,543	-8
806,764	-10,21
806,985	-7,54
807,207	-6,02
807,428	-5,51
807,649	-9,51
807,87	-10,93
808,091	-9,75
808,312	-9,54
808,533	-4,18
808,754	-1,44
808,975	-4,06
809,195	-2,02
809,416	-0,62
809,637	-0,68
809,858	-2,64
810,079	-4,37
810,3	-2,19
810,52	-3
810,741	-3,9
810,962	-6,85
811,183	-6,26
811,403	-5,92
811,624	-6,57
811,845	-5,8
812,065	-4,82
812,286	-3,87
812,506	-3,89
812,727	-2,41
812,948	-1,71
813,168	0,09
813,389	-1,75
813,609	1,39
813,83	-0,48
814,05	-1,43
814,27	-1,45
814,491	4,24
814,711	3,05
814,931	0,82
815,152	-0,96
815,372	-2,14
815,592	-3,64
815,813	-4,5
816,033	-6,28
816,253	-6,43
816,473	-8,45
816,694	-7,77
816,914	-6,05
817,134	-7,48
817,354	-9,76
817,574	-8,99
817,794	-8,26
818,014	-9,64
818,234	-9,64
818,454	-9,88
818,674	-12,24
818,894	-14,75
819,114	-10,93
819,334	-10,17
819,554	-8,46
819,774	-6,43
819,994	-9,24
820,214	-10,1
820,433	-8,84
820,653	-9,28
820,873	-8,07
821,093	-8,33
821,312	-9,74
821,532	-6,36
821,752	-2,82
821,972	-5,66
822,191	-4
822,411	-5,49
822,63	-4,89
822,85	-4,84
823,07	-7,87
823,289	-6,63
823,509	-7,59
823,728	-6,07
823,948	-8,74
824,167	-8,74
824,387	-10,58
824,606	-9,09
824,825	-8,77
825,045	-8,85
825,264	-9,12
825,483	-7,23
825,703	-4,94
825,922	-8,54
826,141	-10,2
826,361	-12,04
826,58	-16,25
826,799	-17,26
827,018	-15,94
827,237	-17,53
827,456	-14,93
827,676	-13,8
827,895	-13,12
828,114	-13,23
828,333	-13,2
828,552	-13,85
828,771	-11,96
828,99	-16,96
829,209	-15,82
829,428	-13,76
829,647	-14,01
829,866	-11,98
830,084	-11,09
830,303	-11,6
830,522	-13,23
830,741	-11,49
830,96	-10,65
831,179	-8,61
831,397	-10,13
831,616	-10,13
831,835	-10,9
832,053	-10,1
832,272	-9,9
832,491	-8,85
832,709	-10,29
832,928	-9,11
833,147	-8,94
833,365	-7,4
833,584	-5,06
833,802	-1,97
834,021	-3,32
834,239	-3,35
834,458	-5,53
834,676	-8,98
834,894	-9,75
835,113	-11,14
835,331	-12,38
835,55	-12,54
835,768	-9,95
835,986	-9,27
836,204	-10,79
836,423	-10,31
836,641	-11,51
836,859	-13,45
837,077	-11,74
837,296	-11,82
837,514	-12,63
837,732	-13,55
837,95	-15,11
838,168	-12,11
838,386	-12,28
838,604	-9,81
838,822	-9,03
839,04	-10,3
839,258	-10,24
839,476	-6,62
839,694	-6,16
839,912	-6,56
840,13	-6,36
840,348	-4,06
840,566	-7,27
840,783	-4,1
841,001	-6
841,219	-4,77
841,437	-2,82
841,655	-2,79
841,872	-3,55
842,09	-3,26
842,308	-1,67
842,525	-1,98
842,743	-1,02
842,961	-1,58
843,178	-3,8
843,396	1,93
843,613	3,72
843,831	4,77
844,048	5,08
844,266	5,38
844,483	5,37
844,701	4,94
844,918	4,32
845,136	2,88
845,353	0,65
845,57	0,17
845,788	3,81
846,005	2,35
846,222	-0,43
846,439	-0,11
846,657	0,59
846,874	0,43
847,091	-1,75
847,308	0,69
847,526	-1,15
847,743	-0,99
847,96	-2,21
848,177	-3,04
848,394	-2,66
848,611	-2,56
848,828	-3,93
849,045	-5,53
849,262	-7,02
849,479	-7,12
849,696	-8,39
849,913	-9,11
850,13	-14,89
850,347	-12,07
850,564	-12,15
850,78	-14,75
850,997	-17,29
851,214	-16,47
851,431	-14,65
851,647	-17,37
851,864	-15,8
852,081	-14,91
852,298	-19,13
852,514	-20,44
852,731	-19,68
852,948	-17,23
853,164	-16,96
853,381	-17,38
853,597	-19,26
853,814	-21,39
854,03	-25,54
854,247	-23,21
854,463	-23,09
854,68	-23,63
854,896	-23,22
855,113	-22,72
855,329	-22,24
855,545	-18,7
855,762	-18,57
855,978	-20,83
856,194	-24,26
856,411	-20,05
856,627	-18,63
856,843	-18,09
857,059	-15,03
857,275	-16,81
857,492	-16,35
857,708	-10,9
857,924	-11,12
858,14	-10,55
858,356	-11,69
858,572	-11,12
858,788	-11,16
859,004	-8,63
859,22	-11,04
859,436	-10,23
859,652	-11,55
859,868	-12,82
860,084	-13,29
860,3	-13,28
860,516	-12,99
860,731	-11,24
860,947	-14,97
861,163	-13,58
861,379	-12,43
861,595	-10,83
861,81	-10,11
862,026	-10,59
862,242	-11,52
862,457	-11,09
862,673	-8,92
862,889	-7,79
863,104	-9,54
863,32	-8,25
863,535	-7,08
863,751	-13,38
863,966	-10,05
864,182	-8,23
864,397	-10,52
864,613	-10,47
864,828	-11,42
865,044	-8,49
865,259	-6,34
865,474	-7,7
865,69	-5,7
865,905	-3,73
866,12	-6,2
866,336	-6,15
866,551	-5,05
866,766	-5,56
866,981	-5,5
867,196	-5,89
867,412	-5,74
867,627	-3,68
867,842	-4,94
868,057	-5,66
868,272	-6,5
868,487	-7,29
868,702	-8,49
868,917	-9,32
869,132	-8,94
869,347	-7,16
869,562	-8,86
869,777	-7,97
869,992	-9,96
870,207	-8,99
870,422	-8,51
870,636	-11,59
870,851	-13,21
871,066	-15,68
871,281	-16,43
871,495	-16,95
871,71	-15,84
871,925	-19
872,14	-19,27
872,354	-21,43
872,569	-23,96
872,783	-21,93
872,998	-22,61
873,213	-22,46
873,427	-19,77
873,642	-19,24
873,856	-17,78
874,071	-18,5
874,285	-20,27
874,5	-21,58
874,714	-22,62
874,928	-23,58
875,143	-25,2
875,357	-25,63
875,571	-27,48
875,786	-28,15
876	-25,95
876,214	-23,65
876,429	-26,44
876,643	-23,9
876,857	-25,21
877,071	-23,84
877,285	-24,5
877,499	-26,39
877,714	-23,37
877,928	-21,24
878,142	-23,63
878,356	-25,04
878,57	-23,91
878,784	-22,55
878,998	-21,98
879,212	-17,98
879,426	-20,38
879,639	-18,27
879,853	-19,86
880,067	-20,4
880,281	-20,13
880,495	-19,53
880,709	-16,69
880,922	-15,52
881,136	-13,23
881,35	-11,45
881,564	-9,86
881,777	-11,95
881,991	-10,21
882,205	-7,1
882,418	-5,9
882,632	-9
882,845	-8,98
883,059	-8,43
883,273	-9,79
883,486	-10,1
883,7	-8,72
883,913	-7,69
884,126	-5,63
884,34	-8,73
884,553	-10,52
884,767	-5,08
884,98	-5,64
885,193	-7,27
885,407	-8,25
885,62	-8,03
885,833	-9,08
886,046	-6,63
886,26	-7,66
886,473	-7,72
886,686	-10
886,899	-8,93
887,112	-9,37
887,326	-12,02
887,539	-12,12
887,752	-11,26
887,965	-13,23
888,178	-13,6
888,391	-11,05
888,604	-11,31
888,817	-12,61
889,03	-11,77
889,243	-12,78
889,455	-14,88
889,668	-14,15
889,881	-11,34
890,094	-10,97
890,307	-13,02
890,52	-12,19
890,732	-11,34
890,945	-10,76
891,158	-10,18
891,37	-13,06
891,583	-12,46
891,796	-9,9
892,008	-11,39
892,221	-12,26
892,434	-16,07
892,646	-18,67
892,859	-20,3
893,071	-18,04
893,284	-15,15
893,496	-16,63
893,709	-17,1
893,921	-15,63
894,133	-15,89
894,346	-17,42
894,558	-17,38
894,771	-16,81
894,983	-15,79
895,195	-15,14
895,407	-14,69
895,62	-17,97
895,832	-17,12
896,044	-14,59
896,256	-16,01
896,468	-19,88
896,681	-18,5
896,893	-17,76
897,105	-18,38
897,317	-19,91
897,529	-18,47
897,741	-18,75
897,953	-16,86
898,165	-18,72
898,377	-21,03
898,589	-19,09
898,801	-18,97
899,013	-15,61
899,224	-11,84
899,436	-9,67
899,648	-11,44
899,86	-14,34
900,072	-10,87
900,283	-10,46
900,495	-9,28
900,707	-9,28
900,919	-11,77
901,13	-9,75
901,342	-11,76
901,554	-12,71
901,765	-11,91
901,977	-13,41
902,188	-13,54
902,4	-15,12
902,611	-17,18
902,823	-18,21
903,034	-19,28
903,246	-21,3
903,457	-21,51
903,669	-22,72
903,88	-21,82
904,091	-21,72
904,303	-21,02
904,514	-22,41
904,725	-20,83
904,936	-19,01
905,148	-18,49
905,359	-15,61
905,57	-16,01
905,781	-17,9
905,992	-18,81
906,204	-16,95
906,415	-16
906,626	-18,03
906,837	-14,85
907,048	-15,25
907,259	-15,75
907,47	-16,95
907,681	-19,27
907,892	-16,15
908,103	-16,96
908,314	-19,64
908,525	-16,92
908,735	-15,49
908,946	-14,96
909,157	-15,63
909,368	-12,03
909,579	-10,17
909,789	-11,38
910	-13,37
910,211	-11,16
910,421	-12,15
910,632	-11,48
910,843	-13,88
911,053	-9,97
911,264	-6,93
911,475	-8,05
911,685	-8,15
911,896	-8,35
912,106	-7,57
912,317	-9,18
912,527	-6,95
912,737	-7,92
912,948	-7,66
913,158	-7,57
913,369	-11,74
913,579	-10,84
913,789	-9,93
914	-4,79
914,21	-3,91
914,42	-5,11
914,63	-5,36
914,841	-3,98
915,051	-3,86
915,261	-4,06
915,471	-1,55
915,681	0,57
915,891	-0,04
916,101	-0,73
916,311	-1,36
916,521	-0,9
916,731	0,21
916,941	2,89
917,151	1,68
917,361	3,59
917,571	-1,85
917,781	-3,92
917,991	-6,63
918,201	-5,98
918,411	-10,22
918,621	-10,27
918,83	-8,04
919,04	-11,31
919,25	-8,46
919,46	-7,23
919,669	-10,22
919,879	-9,51
920,089	-11,29
920,298	-12,67
920,508	-13,24
920,717	-12,09
920,927	-13,76
921,136	-12,08
921,346	-12,99
921,555	-16,15
921,765	-15,04
921,974	-17,34
922,184	-20,08
922,393	-21,28
922,603	-21,13
922,812	-18,65
923,021	-19,17
923,23	-21,43
923,44	-23,82
923,649	-23,53
923,858	-22,44
924,067	-21,68
924,277	-23,69
924,486	-20,66
924,695	-21,65
924,904	-17,3
925,113	-17,92
925,322	-17,68
925,531	-15,37
925,74	-19,96
925,949	-20,07
926,158	-16,75
926,367	-17,28
926,576	-16,13
926,785	-15,73
926,994	-17,63
927,203	-17,81
927,412	-17,58
927,621	-19,34
927,83	-17,07
928,038	-17,13
928,247	-18,61
928,456	-18,94
928,665	-18,79
928,873	-15,38
929,082	-14,28
929,291	-13,79
929,499	-11,6
929,708	-11,84
929,916	-11,82
930,125	-14,24
930,333	-16,12
930,542	-13,88
930,75	-10,7
930,959	-9,69
931,167	-11,01
931,376	-13,05
931,584	-12,34
931,793	-12,09
932,001	-13,47
932,209	-15,39
932,418	-18,46
932,626	-20,39
932,834	-21,52
933,042	-24,77
933,251	-25,72
933,459	-24,35
933,667	-26,15
933,875	-26,74
934,083	-23,66
934,291	-23,26
934,499	-21,63
934,707	-20,73
934,915	-20,77
935,123	-17,71
935,331	-19,01
935,539	-21,35
935,747	-22,63
935,955	-23,23
936,163	-23,03
936,371	-21,71
936,579	-18,11
936,787	-18,23
936,995	-19,37
937,202	-21,65
937,41	-22,24
937,618	-22,55
937,826	-21,91
938,033	-26,7
938,241	-28,94
938,449	-26,2
938,656	-22,41
938,864	-21,54
939,071	-21,63
939,279	-18,38
939,486	-15,18
939,694	-15,13
939,901	-17,46
940,109	-15,97
940,316	-15,35
940,524	-17,52
940,731	-19,79
940,939	-18,93
941,146	-19,24
941,353	-19,5
941,561	-19,32
941,768	-20,64
941,975	-18,37
942,182	-18,56
942,39	-17,93
942,597	-15,34
942,804	-16,58
943,011	-17,99
943,218	-17,04
943,425	-17,89
943,632	-16,96
943,839	-19,11
944,046	-18,98
944,253	-18,78
944,46	-17,11
944,667	-12,67
944,874	-14,22
945,081	-12,99
945,288	-11,22
945,495	-9,21
945,702	-9,23
945,909	-12,05
946,115	-9,95
946,322	-10,33
946,529	-12,19
946,736	-12,02
946,942	-10,56
947,149	-10,04
947,356	-11,98
947,562	-14,16
947,769	-13,88
947,976	-16,06
948,182	-14,78
948,389	-17,23
948,595	-16,49
948,802	-16,11
949,008	-17,97
949,215	-16,4
949,421	-16,77
949,628	-17,44
949,834	-16,11
950,04	-18,14
950,247	-14,46
950,453	-13,53
950,659	-16,05
950,865	-13,32
951,072	-19,27
951,278	-16,32
951,484	-16,53
951,69	-19,97
951,896	-20,95
952,103	-21,74
952,309	-19,19
952,515	-20,14
952,721	-17,7
952,927	-15,25
953,133	-17,35
953,339	-19,35
953,545	-20,99
953,751	-19,68
953,957	-16,18
954,163	-17,52
954,369	-16,65
954,574	-18,83
954,78	-18,92
954,986	-17,03
955,192	-16,48
955,398	-17,47
955,603	-18,96
955,809	-17,62
956,015	-17,19
956,22	-16,38
956,426	-13,76
956,632	-16,15
956,837	-14,92
957,043	-13,42
957,248	-12,2
957,454	-11,7
957,66	-15,01
957,865	-16,6
958,07	-14,32
958,276	-15,72
958,481	-17,58
958,687	-19,15
958,892	-18,91
959,097	-20
959,303	-20,34
959,508	-20,25
959,713	-20,27
959,919	-19
960,124	-19,57
960,329	-19,96
960,534	-16,77
960,739	-15,7
960,945	-14,89
961,15	-13,82
961,355	-16,57
961,56	-20,54
961,765	-21,43
961,97	-21,6
962,175	-18,75
962,38	-22,32
962,585	-22,25
962,79	-24,85
962,995	-25,52
963,2	-28,68
963,404	-29,27
963,609	-33,98
963,814	-33,86
964,019	-35,5
964,224	-36,49
964,428	-35,11
964,633	-32,92
964,838	-31,59
965,042	-31,82
965,247	-33,24
965,452	-32,87
965,656	-32,09
965,861	-29,22
966,066	-29,47
966,27	-27,43
966,475	-22,54
966,679	-26,38
966,884	-26,08
967,088	-28,25
967,292	-28,04
967,497	-26,62
967,701	-26,2
967,906	-23,79
968,11	-20,31
968,314	-16,6
968,518	-19,88
968,723	-14,95
968,927	-13,99
969,131	-12,42
969,335	-9,71
969,539	-8,58
969,744	-6,33
969,948	-2,7
970,152	-0,79
970,356	0,06
970,56	-0,03
970,764	-0,92
970,968	0,66
971,172	1,22
971,376	1,56
971,58	3,11
971,784	3,64
971,988	1,81
972,192	3,53
972,395	4,01
972,599	1,29
972,803	-3,43
973,007	-1,97
973,21	-2,66
973,414	-3,51
973,618	-3,66
973,822	-4,21
974,025	-3,98
974,229	-4,41
974,432	-8,39
974,636	-10,84
974,84	-9,6
975,043	-10,49
975,247	-13
975,45	-13,6
975,654	-13,86
975,857	-12,72
976,06	-14,11
976,264	-16,17
976,467	-14,39
976,671	-14,26
976,874	-13,65
977,077	-14,72
977,28	-16,05
977,484	-18,58
977,687	-17,47
977,89	-16,09
978,093	-16,57
978,297	-15,19
978,5	-17,63
978,703	-16,51
978,906	-16,07
979,109	-13,36
979,312	-11,95
979,515	-13,1
979,718	-11,7
979,921	-12,37
980,124	-15,13
980,327	-15,87
980,53	-16,39
980,733	-13,59
980,936	-11,07
981,138	-12,79
981,341	-12,22
981,544	-11,9
981,747	-13,23
981,949	-14,88
982,152	-14,06
982,355	-14,48
982,558	-11,42
982,76	-15,52
982,963	-16,65
983,165	-15,87
983,368	-15,34
983,571	-16,63
983,773	-12,72
983,976	-12,93
984,178	-12,01
984,381	-12
984,583	-13,55
984,785	-13,73
984,988	-12,93
985,19	-11,04
985,392	-14,18
985,595	-16,04
985,797	-14,55
985,999	-13,42
986,202	-11,36
986,404	-11,7
986,606	-8,88
986,808	-9,27
987,01	-8,3
987,212	-9,83
987,415	-10,99
987,617	-10,17
987,819	-10,11
988,021	-9,02
988,223	-9,02
988,425	-9,64
988,627	-9,7
988,829	-14,41
989,031	-12,13
989,232	-12,1
989,434	-11,53
989,636	-11,78
989,838	-10,56
990,04	-10,12
990,242	-10,98
990,443	-13,9
990,645	-12,56
990,847	-10,43
991,048	-10,54
991,25	-11,25
991,452	-11,95
991,653	-12,17
991,855	-12,03
992,057	-13,7
992,258	-12,36
992,46	-12,57
992,661	-10,69
992,863	-11,52
993,064	-9,47
993,265	-10,79
993,467	-12,8
993,668	-10,83
993,87	-11,94
994,071	-12,45
994,272	-11,19
994,473	-9,71
994,675	-9,08
994,876	-8,02
995,077	-6,31
995,278	-5,75
995,48	-5,25
995,681	-7,73
995,882	-6,36
996,083	-7,64
996,284	-12,56
996,485	-12,62
996,686	-13,99
996,887	-15,54
997,088	-18,89
997,289	-20,18
997,49	-20,9
997,691	-20,51
997,892	-20,85
998,092	-16,81
998,293	-16,56
998,494	-18,7
998,695	-19,93
998,896	-18,7
999,096	-19,09
999,297	-19,56
999,498	-21,07
999,698	-23,12
999,899	-24,41
1000,1	-26,58
1000,3	-26,47
1000,501	-28,47
1000,701	-30,06
1000,902	-31,48
1001,102	-31,91
1001,303	-30,28
1001,503	-31,83
1001,704	-30,67
1001,904	-29,55
1002,105	-29,01
1002,305	-27,72
1002,505	-27,35
1002,706	-29,38
1002,906	-29,68
1003,106	-29,25
1003,306	-27,43
1003,507	-25,17
1003,707	-26,41
1003,907	-25,25
1004,107	-24,23
1004,307	-25,48
1004,507	-23,56
1004,707	-22,58
1004,907	-23,27
1005,107	-23,31
1005,308	-23,95
1005,507	-25,86
1005,707	-22,37
1005,907	-21,73
1006,107	-18,3
1006,307	-16,66
1006,507	-18,11
1006,707	-15,49
1006,907	-13,8
1007,106	-13,3
1007,306	-14,03
1007,506	-14,32
1007,706	-14,93
1007,905	-18,02
1008,105	-17,68
1008,305	-18,38
1008,504	-17,79
1008,704	-11,9
1008,903	-9,8
1009,103	-7,23
1009,303	-9,75
1009,502	-8,52
1009,702	-9,51
1009,901	-8,76
1010,1	-12,47
1010,3	-9,52
1010,499	-11,49
1010,699	-12,47
1010,898	-13,07
1011,097	-12,62
1011,296	-12,99
1011,496	-13,56
1011,695	-13,24
1011,894	-15,25
1012,093	-12,19
1012,293	-13,59
1012,492	-13,17
1012,691	-12,47
1012,89	-13,75
1013,089	-16,23
1013,288	-15,06
1013,487	-12,72
1013,686	-13,25
1013,885	-13,56
1014,084	-11,14
1014,283	-11,61
1014,482	-12,16
1014,681	-13,29
1014,88	-18,24
1015,078	-16,65
1015,277	-18,35
1015,476	-18,98
1015,675	-19,57
1015,873	-19,13
1016,072	-19,8
1016,271	-15,19
1016,47	-19,69
1016,668	-19,28
1016,867	-20,91
1017,065	-23,22
1017,264	-23,93
1017,463	-23,84
1017,661	-24,15
1017,86	-23,83
1018,058	-22,97
1018,256	-24,51
1018,455	-26,6
1018,653	-26,75
1018,852	-25,52
1019,05	-27,42
1019,248	-28,08
1019,447	-30,24
1019,645	-31,57
1019,843	-34,04
1020,041	-32,01
1020,24	-33,34
1020,438	-30,49
1020,636	-30,98
1020,834	-33,6
1021,032	-32,1
1021,23	-34,16
1021,428	-31,92
1021,626	-26,93
1021,824	-28,22
1022,022	-30,32
1022,22	-28,29
1022,418	-29,56
1022,616	-31,22
1022,814	-32,21
1023,012	-31,88
1023,21	-29,38
1023,408	-29,05
1023,606	-30,01
1023,803	-24,6
1024,001	-24,62
1024,199	-28,83
1024,397	-27,72
1024,594	-27,13
1024,792	-29,55
1024,99	-28,9
1025,187	-28,34
1025,385	-25,03
1025,582	-23,11
1025,78	-25,18
1025,977	-22,09
1026,175	-23,43
1026,372	-22,08
1026,57	-24,41
1026,767	-22,4
1026,965	-20,59
1027,162	-20,34
1027,359	-19,83
1027,557	-20,1
1027,754	-23,97
1027,951	-24,6
1028,148	-22,03
1028,346	-23,38
1028,543	-25,34
1028,74	-23,98
1028,937	-25,17
1029,134	-26,93
1029,331	-28,23
1029,528	-27,91
1029,725	-28,97
1029,923	-32,35
1030,12	-27,63
1030,317	-24,95
1030,513	-23,57
1030,71	-22,78
1030,907	-19,83
1031,104	-19,92
1031,301	-21,17
1031,498	-21,6
1031,695	-22,09
1031,892	-20,98
1032,088	-22,14
1032,285	-23,84
1032,482	-25,24
1032,678	-28,78
1032,875	-31,37
1033,072	-31,04
1033,268	-30,66
1033,465	-31,28
1033,662	-34,16
1033,858	-32,67
1034,055	-32,35
1034,251	-29
1034,448	-28,8
1034,644	-26,98
1034,84	-23,3
1035,037	-20,76
1035,233	-19,62
1035,43	-18,22
1035,626	-18,68
1035,822	-16,07
1036,019	-18,07
1036,215	-22,84
1036,411	-24,04
1036,607	-26,03
1036,803	-28,73
1037	-29,47
1037,196	-31,96
1037,392	-31,57
1037,588	-33,8
1037,784	-33,85
1037,98	-34,55
1038,176	-33,66
1038,372	-33,04
1038,568	-31,33
1038,764	-29,07
1038,96	-26,53
1039,156	-29,16
1039,352	-30,71
1039,547	-29,21
1039,743	-27,48
1039,939	-26,48
1040,135	-26,63
1040,331	-29,67
1040,526	-27,48
1040,722	-29,41
1040,918	-31,41
1041,113	-34,24
1041,309	-33,87
1041,505	-36,02
1041,7	-35,03
1041,896	-35,69
1042,091	-34,99
1042,287	-34,16
1042,482	-33,08
1042,678	-33,59
1042,873	-31,86
1043,069	-32,54
1043,264	-31,27
1043,459	-29,94
1043,655	-28,38
1043,85	-29,16
1044,045	-27,52
1044,24	-28,11
1044,436	-25,72
1044,631	-26,79
1044,826	-25,87
1045,021	-28,79
1045,216	-24,7
