Data from FLMT021711__5__17-54-03-289.txt Node

Date: Tue Nov 05 17:54:03 CET 2024
User: Etudiants TP
Spectrometer: FLMT02171
Trigger mode: 0
Integration Time (sec): 1,000000E-1
Scans to average: 5
Electric dark correction enabled: true
Nonlinearity correction enabled: false
Boxcar width: 15
XAxis mode: Wavelengths
Number of Pixels in Spectrum: 3648
>>>>>Begin Spectral Data<<<<<
194,658	-53,07
194,923	-50,96
195,188	-45,26
195,453	-43,72
195,717	-38,49
195,982	-36,31
196,247	-34,25
196,512	-37,43
196,777	-35,94
197,042	-35,06
197,307	-35,53
197,572	-31,86
197,837	-32,29
198,101	-29,97
198,366	-26,85
198,631	-23,96
198,896	-19,88
199,161	-14,16
199,425	-7,3
199,69	1,62
199,955	0,45
200,22	-1,07
200,484	-2,38
200,749	-2,08
201,014	0,3
201,278	1,8
201,543	2,71
201,807	3
202,072	5,81
202,337	6,44
202,601	6,17
202,866	4,39
203,13	6,83
203,395	5,3
203,659	5,48
203,924	2,38
204,189	3,14
204,453	4,43
204,717	7,8
204,982	8,73
205,246	10,96
205,511	12,64
205,775	12,77
206,04	18,04
206,304	18,99
206,568	19,14
206,833	18,56
207,097	20,6
207,361	22,81
207,626	25,48
207,89	24,85
208,154	27,12
208,419	29,06
208,683	29,03
208,947	30,94
209,211	29,65
209,476	28,52
209,74	29,09
210,004	29,65
210,268	28,93
210,532	31,49
210,796	32,65
211,061	33,5
211,325	32,66
211,589	31,96
211,853	32,47
212,117	34,37
212,381	34,29
212,645	34,05
212,909	33,58
213,173	31,99
213,437	32,53
213,701	32,85
213,965	32,75
214,229	27,95
214,493	27,77
214,757	26,83
215,021	26,36
215,285	29,81
215,549	30,59
215,813	27,76
216,077	28,35
216,34	29,6
216,604	28,2
216,868	29,46
217,132	29,3
217,396	29,65
217,659	29,74
217,923	26,48
218,187	24,87
218,451	24,64
218,714	22,92
218,978	21,78
219,242	23,84
219,505	24,78
219,769	25,58
220,033	25
220,296	25,33
220,56	25,99
220,824	23,56
221,087	23,94
221,351	23,19
221,614	21,43
221,878	22,77
222,142	21,25
222,405	21,14
222,669	22,17
222,932	19,55
223,196	17,31
223,459	14,92
223,722	16,87
223,986	16,78
224,249	15,98
224,513	16,05
224,776	15,78
225,04	15,26
225,303	15,11
225,566	14,28
225,83	15,44
226,093	18,52
226,356	16,95
226,62	15,12
226,883	16,01
227,146	17,64
227,409	16,98
227,673	15,26
227,936	15,14
228,199	14,67
228,462	13,07
228,725	12,38
228,989	11,91
229,252	12,73
229,515	17,79
229,778	17,46
230,041	16,06
230,304	14,21
230,567	15,57
230,83	14,12
231,093	17,09
231,356	18,41
231,619	24,05
231,882	21,57
232,145	22,42
232,408	21,4
232,671	20,86
232,934	20,87
233,197	19,5
233,46	19,05
233,723	22,12
233,986	20,7
234,249	17,2
234,512	21,79
234,775	25,16
235,037	23,98
235,3	23,5
235,563	23,28
235,826	24,45
236,089	25,85
236,351	25,85
236,614	29,55
236,877	29,83
237,14	32,64
237,402	32,27
237,665	27,22
237,928	26,98
238,19	24,89
238,453	27,16
238,716	25,62
238,978	25,18
239,241	22,85
239,503	24,1
239,766	19,44
240,029	17,6
240,291	20,15
240,554	20,45
240,816	19,16
241,079	19,94
241,341	18,87
241,604	17,61
241,866	13,71
242,129	15,98
242,391	18,5
242,653	15,05
242,916	15,52
243,178	15,05
243,441	15,98
243,703	15,75
243,965	12,74
244,228	13,25
244,49	13,66
244,752	13,94
245,015	14,45
245,277	16,32
245,539	15,57
245,801	15,11
246,064	14,69
246,326	15,77
246,588	16,81
246,85	20,82
247,112	21,38
247,374	22,77
247,637	24,81
247,899	23,29
248,161	23,94
248,423	20,11
248,685	20,15
248,947	20,42
249,209	19,74
249,471	21,13
249,733	21,25
249,995	20,25
250,257	19,07
250,519	17,87
250,781	20,48
251,043	17,93
251,305	19,96
251,567	20,22
251,829	19,87
252,091	21,25
252,353	16,79
252,615	17,64
252,876	15,2
253,138	14,22
253,4	10,73
253,662	12,3
253,924	15,71
254,185	16,96
254,447	16,38
254,709	15,35
254,971	15,76
255,232	17,66
255,494	17
255,756	14,54
256,017	16,04
256,279	16,34
256,541	16,15
256,802	17,61
257,064	16,9
257,326	15,74
257,587	17,14
257,849	19,05
258,11	22
258,372	22,66
258,633	23,89
258,895	24,04
259,156	22,35
259,418	20,06
259,679	16,92
259,941	14,64
260,202	17,14
260,464	20,91
260,725	19,19
260,987	18,63
261,248	17,72
261,509	17,96
261,771	16,96
262,032	18,27
262,293	18,34
262,555	18,99
262,816	17,08
263,077	15,33
263,338	12,42
263,6	13,33
263,861	13,39
264,122	12,85
264,383	16,27
264,645	17,81
264,906	15,28
265,167	15,94
265,428	17,03
265,689	17,29
265,95	15,16
266,211	16,02
266,473	15,38
266,734	10,27
266,995	6,85
267,256	8,05
267,517	11,22
267,778	13,86
268,039	15,83
268,3	14,71
268,561	12,14
268,822	17,47
269,083	16,07
269,344	14,48
269,604	14,79
269,865	14,59
270,126	10,63
270,387	11,72
270,648	12,48
270,909	12,77
271,17	11,19
271,43	7,79
271,691	4,81
271,952	3,9
272,213	6,4
272,473	3,05
272,734	4,57
272,995	5,72
273,256	7,08
273,516	8,4
273,777	7,14
274,038	9,21
274,298	5,52
274,559	6,32
274,82	13,45
275,08	16,53
275,341	18,75
275,601	17,95
275,862	16,92
276,122	16,8
276,383	15,8
276,643	17,36
276,904	13,77
277,164	17,2
277,425	17,29
277,685	19,93
277,946	19,85
278,206	22,46
278,467	23,25
278,727	24,39
278,987	23,87
279,248	22,61
279,508	25,35
279,768	26,93
280,029	28,48
280,289	23,4
280,549	23,23
280,81	21,6
281,07	21,4
281,33	23,83
281,59	23,27
281,851	25,39
282,111	23,92
282,371	24,74
282,631	24,69
282,891	21,69
283,151	21,28
283,412	19,11
283,672	18,04
283,932	17,68
284,192	19,24
284,452	17,3
284,712	15,8
284,972	15,72
285,232	12,68
285,492	15,54
285,752	13,26
286,012	20,94
286,272	22,28
286,532	19,53
286,792	20,25
287,052	22,59
287,312	24,28
287,571	23,3
287,831	24,46
288,091	21,38
288,351	22,74
288,611	26,37
288,871	27,58
289,13	26,96
289,39	22,65
289,65	21,68
289,91	18,67
290,17	21,52
290,429	24,82
290,689	22,3
290,949	20,23
291,208	20,1
291,468	23,28
291,728	23,53
291,987	25,15
292,247	23,49
292,506	25,6
292,766	26,83
293,026	23,73
293,285	25,16
293,545	28,93
293,804	29,03
294,064	24,44
294,323	21,03
294,583	22,38
294,842	20,31
295,102	21,37
295,361	21,4
295,621	21,64
295,88	21,56
296,139	21,68
296,399	22,5
296,658	16,34
296,917	15,89
297,177	14,42
297,436	15,66
297,695	15,29
297,955	16,7
298,214	14,63
298,473	14,9
298,732	17,26
298,992	20,08
299,251	19,58
299,51	15,88
299,769	17,9
300,028	17,94
300,287	19,01
300,547	19,99
300,806	18,55
301,065	23,96
301,324	25,16
301,583	20,08
301,842	16,36
302,101	13,98
302,36	14,86
302,619	14,2
302,878	15,18
303,137	11,29
303,396	11,64
303,655	13,93
303,914	11,62
304,173	13,29
304,432	13,1
304,691	17,2
304,95	16,06
305,208	20,5
305,467	20,4
305,726	20,83
305,985	21,88
306,244	23,95
306,503	22,94
306,761	22,17
307,02	19,2
307,279	19,94
307,537	20,82
307,796	17,31
308,055	14,83
308,314	16,03
308,572	12,92
308,831	14,59
309,09	13,91
309,348	15,1
309,607	14,49
309,865	19,03
310,124	18,61
310,382	19,56
310,641	21,1
310,9	19,89
311,158	21,21
311,417	21,12
311,675	22,01
311,933	23,69
312,192	23,88
312,45	24,28
312,709	24,1
312,967	23,84
313,226	22,67
313,484	21,64
313,742	19,32
314,001	17,27
314,259	16,2
314,517	17,23
314,776	18,7
315,034	21,37
315,292	19,18
315,55	17,72
315,809	17,13
316,067	17,92
316,325	14,08
316,583	16,64
316,841	16,06
317,1	14,89
317,358	10,11
317,616	9,6
317,874	8,57
318,132	7,96
318,39	8,03
318,648	5,52
318,906	5,84
319,164	5,76
319,422	5,64
319,68	4,1
319,938	4,49
320,196	4,35
320,454	5,09
320,712	4,81
320,97	3,55
321,228	2
321,486	4,78
321,744	6,89
322,002	9,97
322,26	8,15
322,517	7,49
322,775	4,94
323,033	3,4
323,291	6,1
323,549	7,15
323,806	9,12
324,064	9,65
324,322	12,24
324,58	10,95
324,837	12,95
325,095	10,55
325,353	12,84
325,61	15,05
325,868	14,5
326,126	15,94
326,383	15,27
326,641	15,17
326,898	16,12
327,156	16,43
327,413	16,32
327,671	15,59
327,928	16,77
328,186	17,05
328,443	15,43
328,701	19,21
328,958	19,99
329,216	20,19
329,473	17,89
329,731	19,3
329,988	16,77
330,245	19,48
330,503	20,86
330,76	20,24
331,017	22,55
331,275	19,81
331,532	20,31
331,789	18,46
332,047	18,03
332,304	15,35
332,561	16,06
332,818	13,82
333,076	14,66
333,333	16,23
333,59	17,26
333,847	18,96
334,104	18,42
334,361	17,38
334,618	17,22
334,876	15,78
335,133	15,44
335,39	13,79
335,647	15,08
335,904	11,87
336,161	10,52
336,418	11,73
336,675	8,15
336,932	10,06
337,189	10,43
337,446	10,83
337,703	8,97
337,96	6,15
338,216	6,29
338,473	2,37
338,73	4,83
338,987	5,19
339,244	9,41
339,501	7,01
339,757	8,49
340,014	10,16
340,271	10,95
340,528	11,46
340,785	15,69
341,041	16,73
341,298	13,55
341,555	11,65
341,811	10,33
342,068	8,57
342,325	8,85
342,581	10,83
342,838	12,5
343,094	13,05
343,351	13,87
343,608	11,99
343,864	14,72
344,121	15,83
344,377	14,6
344,634	12,34
344,89	10,95
345,147	9,69
345,403	9,14
345,66	8,08
345,916	11,15
346,172	8,73
346,429	9,63
346,685	7,93
346,942	6,86
347,198	1,95
347,454	4,43
347,711	3,8
347,967	-0,05
348,223	1,11
348,48	0,42
348,736	3,84
348,992	4,19
349,248	7,2
349,504	7,39
349,761	7,93
350,017	7,95
350,273	6,88
350,529	6,07
350,785	4,21
351,041	2,79
351,297	4,3
351,554	3,52
351,81	0,47
352,066	-0,44
352,322	-0,94
352,578	1,25
352,834	0,9
353,09	0,3
353,346	0,78
353,602	-0,24
353,858	-1,43
354,114	-2,3
354,369	-1,34
354,625	-0,24
354,881	-1,27
355,137	1,34
355,393	0,9
355,649	2,44
355,905	3,65
356,16	4,34
356,416	4,9
356,672	-2,75
356,928	-3,54
357,183	-4,49
357,439	-2,68
357,695	-4,06
357,951	0,86
358,206	2,57
358,462	2,95
358,718	1,67
358,973	3,66
359,229	4,44
359,484	5,35
359,74	9,64
359,996	9,56
360,251	12,82
360,507	12,7
360,762	12,95
361,018	15,67
361,273	13,17
361,529	15,29
361,784	15,18
362,04	17,57
362,295	16,4
362,55	16,21
362,806	18,3
363,061	19,87
363,316	19,96
363,572	18,84
363,827	20,52
364,082	17,33
364,338	16,61
364,593	17,05
364,848	18,91
365,104	17,5
365,359	18,71
365,614	18,98
365,869	16,31
366,124	16,23
366,38	14,68
366,635	16,86
366,89	18,36
367,145	17
367,4	19,63
367,655	18,65
367,91	19,03
368,165	17,14
368,42	13,09
368,675	13,82
368,93	14,97
369,185	13,81
369,44	14,09
369,695	16,45
369,95	14,51
370,205	14,56
370,46	15,2
370,715	14,58
370,97	15,31
371,225	16,06
371,48	18,2
371,734	19,56
371,989	20,25
372,244	19,91
372,499	21,25
372,754	19,83
373,008	18,34
373,263	13,37
373,518	16,23
373,773	14,84
374,027	13,3
374,282	16,38
374,537	16,72
374,791	16,67
375,046	15,29
375,301	13,13
375,555	11,47
375,81	13,11
376,064	14,05
376,319	18,78
376,573	17,96
376,828	14,84
377,082	19,64
377,337	16,97
377,591	14,19
377,846	14,22
378,1	16,19
378,355	16,71
378,609	15,87
378,863	12,04
379,118	11,92
379,372	10,8
379,627	8,26
379,881	7,75
380,135	8,26
380,389	8,21
380,644	8,51
380,898	9,29
381,152	10,97
381,407	9,42
381,661	11,66
381,915	12,74
382,169	11,78
382,423	10,88
382,677	7,28
382,932	9,03
383,186	10,52
383,44	11,1
383,694	12,16
383,948	10,35
384,202	9,12
384,456	10,06
384,71	10,51
384,964	8,14
385,218	11,83
385,472	13,54
385,726	13,45
385,98	13,44
386,234	12,09
386,488	9,01
386,742	10
386,996	8,22
387,249	8,69
387,503	10,5
387,757	11,92
388,011	12,7
388,265	12,94
388,518	13,63
388,772	15,34
389,026	16,53
389,28	15,08
389,533	14,11
389,787	16,01
390,041	14,03
390,295	13,03
390,548	13,94
390,802	15,94
391,055	14,32
391,309	13,47
391,563	11,74
391,816	11,74
392,07	10,88
392,323	12,92
392,577	15,45
392,83	16,91
393,084	21,54
393,337	24,33
393,591	25,9
393,844	25,84
394,098	30,15
394,351	34,88
394,604	37,44
394,858	38,94
395,111	39,16
395,364	37,29
395,618	38,57
395,871	35,72
396,124	34,74
396,378	34,63
396,631	35
396,884	32,25
397,137	31,58
397,391	32,51
397,644	30,38
397,897	31,22
398,15	33,24
398,403	35,65
398,657	33,92
398,91	34,59
399,163	35,91
399,416	35,12
399,669	34,37
399,922	32,54
400,175	29,27
400,428	27,8
400,681	27,45
400,934	22,66
401,187	21,01
401,44	21,49
401,693	19,7
401,946	15,97
402,199	11,01
402,452	9,55
402,704	6,94
402,957	5,59
403,21	7,03
403,463	5,8
403,716	7,65
403,969	7,85
404,221	7,33
404,474	8,04
404,727	10,53
404,98	13,66
405,232	12,07
405,485	13,17
405,738	14,36
405,99	13,99
406,243	13,8
406,496	15,66
406,748	14,73
407,001	14,84
407,253	14,57
407,506	14,81
407,759	17,21
408,011	15,58
408,264	16,15
408,516	16,3
408,769	14,57
409,021	16,1
409,274	15,36
409,526	17,51
409,778	16,93
410,031	19,99
410,283	18,75
410,536	23,26
410,788	21,54
411,04	21,35
411,293	24,42
411,545	24,75
411,797	24,14
412,049	23,45
412,302	24,2
412,554	25,07
412,806	22,06
413,058	21,66
413,311	22,73
413,563	21,39
413,815	21,64
414,067	20,36
414,319	19,36
414,571	21,1
414,823	19,7
415,075	19,41
415,328	21,31
415,58	22,84
415,832	24,85
416,084	24,95
416,336	24,22
416,588	27,49
416,84	24,15
417,091	26,95
417,343	24,4
417,595	25,95
417,847	27,07
418,099	28,65
418,351	28,77
418,603	30,64
418,855	31,19
419,106	29,2
419,358	28,31
419,61	29,18
419,862	29,82
420,114	28,65
420,365	29,15
420,617	31,49
420,869	29,63
421,12	28,06
421,372	29,74
421,624	28,88
421,875	30,05
422,127	26,6
422,379	25,5
422,63	26,6
422,882	26,24
423,133	25,94
423,385	25,67
423,636	26,19
423,888	26,82
424,139	27,82
424,391	25,38
424,642	24,55
424,894	21,9
425,145	21,06
425,396	19,04
425,648	20,66
425,899	18,05
426,151	17,46
426,402	17,7
426,653	18,47
426,905	17,92
427,156	18,24
427,407	17,42
427,658	16,9
427,91	14,99
428,161	12,79
428,412	13,91
428,663	16,87
428,914	18,08
429,166	18,73
429,417	20,36
429,668	17,26
429,919	16,15
430,17	16,57
430,421	16,91
430,672	20,76
430,923	20,17
431,174	20,57
431,425	20,27
431,676	20,18
431,927	19,24
432,178	21,48
432,429	22,43
432,68	21,42
432,931	25,31
433,182	27,6
433,433	24,9
433,683	27,66
433,934	25,7
434,185	24,19
434,436	22
434,687	22,6
434,937	23,81
435,188	23,15
435,439	22,22
435,69	23,34
435,94	23,2
436,191	22,41
436,442	21,34
436,692	19,29
436,943	16,48
437,194	13,36
437,444	16,93
437,695	20,89
437,945	21,48
438,196	18,87
438,447	15,95
438,697	16,55
438,948	14,84
439,198	13,23
439,449	8,75
439,699	6,66
439,949	5,7
440,2	4,79
440,45	6,57
440,701	4,1
440,951	3,03
441,201	2,85
441,452	1,19
441,702	1,86
441,952	3,92
442,203	4,86
442,453	3,35
442,703	4,15
442,953	5,41
443,204	6,67
443,454	3,84
443,704	4,49
443,954	2,68
444,204	2,76
444,455	4,61
444,705	5,72
444,955	7,07
445,205	6,16
445,455	3,71
445,705	3,46
445,955	5,31
446,205	5,05
446,455	3,93
446,705	5,12
446,955	5,56
447,205	8,15
447,455	12,41
447,705	9,99
447,955	9,65
448,205	10,29
448,454	9,82
448,704	11,65
448,954	11,5
449,204	11,53
449,454	12,02
449,704	9,32
449,953	9,04
450,203	10,98
450,453	8,95
450,703	11,44
450,952	10,88
451,202	14,02
451,452	13,83
451,701	17,09
451,951	19,77
452,201	19,51
452,45	18,79
452,7	20,53
452,949	20,66
453,199	20,06
453,448	20,86
453,698	22,12
453,947	21,82
454,197	21,35
454,446	19,7
454,696	21,98
454,945	22,32
455,195	19,56
455,444	20,84
455,693	24,87
455,943	22,91
456,192	24,16
456,442	23,09
456,691	22,87
456,94	22,99
457,189	21,05
457,439	24,54
457,688	26,34
457,937	25,93
458,186	26,3
458,436	26,14
458,685	26,56
458,934	25,31
459,183	24,63
459,432	25,21
459,681	26,19
459,93	25,79
460,179	26,13
460,429	24,73
460,678	26,74
460,927	30,31
461,176	31,24
461,425	31,13
461,674	33,9
461,923	35,17
462,172	34,92
462,42	34,48
462,669	35,16
462,918	34,92
463,167	34,62
463,416	31,96
463,665	33,33
463,914	34,27
464,162	33,15
464,411	34,44
464,66	36,14
464,909	35,61
465,158	35,05
465,406	33,73
465,655	35,25
465,904	37,64
466,152	36,25
466,401	37,21
466,65	38,61
466,898	38,56
467,147	35,06
467,395	33,62
467,644	35,9
467,893	35,66
468,141	35,58
468,39	33,47
468,638	30,7
468,887	27,32
469,135	25,31
469,384	24,7
469,632	25,06
469,88	24,48
470,129	25,87
470,377	23,44
470,626	27,24
470,874	28,7
471,122	29,66
471,371	28,27
471,619	26,98
471,867	29,09
472,115	29,87
472,364	27,15
472,612	30,14
472,86	28,25
473,108	29,72
473,356	29,97
473,605	29,43
473,853	28,14
474,101	27,65
474,349	26,59
474,597	27,46
474,845	25,69
475,093	24,37
475,341	21,1
475,589	21,16
475,837	22,07
476,085	23,26
476,333	22,49
476,581	25,5
476,829	24,54
477,077	26,83
477,325	26,44
477,573	29,52
477,821	26,87
478,069	29,27
478,317	27,95
478,564	30,53
478,812	29,47
479,06	29,53
479,308	28,42
479,555	28,68
479,803	26,85
480,051	28,58
480,299	28,61
480,546	29,66
480,794	27,02
481,042	28,5
481,289	26,71
481,537	26,57
481,784	25,7
482,032	28,36
482,28	29,18
482,527	29,66
482,775	31,01
483,022	32,38
483,27	33
483,517	34,82
483,765	33,56
484,012	33,8
484,259	32,08
484,507	35,83
484,754	35,78
485,002	36,27
485,249	33,27
485,496	37,13
485,744	34,44
485,991	33,27
486,238	31
486,486	32,72
486,733	33,32
486,98	36,12
487,227	35,06
487,474	37,95
487,722	40,23
487,969	38,28
488,216	37,65
488,463	37,1
488,71	33,77
488,957	32,73
489,204	33,49
489,451	34,25
489,699	32,79
489,946	30,44
490,193	30,13
490,44	29,08
490,687	30,57
490,934	30,38
491,18	27,72
491,427	29,32
491,674	31,22
491,921	30,21
492,168	29,26
492,415	26,1
492,662	26,44
492,909	29,86
493,155	29,13
493,402	29,43
493,649	28,78
493,896	29,63
494,142	25,96
494,389	25,31
494,636	23,7
494,883	20,05
495,129	17,84
495,376	16,44
495,623	17,4
495,869	19,32
496,116	21,55
496,362	23,37
496,609	26,25
496,855	31,32
497,102	30,94
497,348	30,55
497,595	30,91
497,841	35,58
498,088	35,13
498,334	33,48
498,581	30,75
498,827	30,7
499,074	30,67
499,32	32,88
499,566	36,25
499,813	35,88
500,059	34,85
500,305	34,88
500,552	32,18
500,798	30,66
501,044	34,23
501,29	33,23
501,537	30,84
501,783	34,51
502,029	37,61
502,275	35,13
502,521	36,08
502,767	36,59
503,013	38,78
503,26	36,61
503,506	34,02
503,752	34,34
503,998	31,3
504,244	32,89
504,49	28,33
504,736	30,39
504,982	29,35
505,228	31,27
505,474	30,79
505,72	31,17
505,966	30,78
506,211	34,26
506,457	33,97
506,703	31,67
506,949	29,91
507,195	28,6
507,441	25,6
507,686	28,16
507,932	28,11
508,178	30,77
508,424	28,25
508,669	26,19
508,915	26,51
509,161	28,54
509,406	28,59
509,652	27,47
509,898	31,96
510,143	33,39
510,389	32,57
510,634	29,48
510,88	34,12
511,125	36,28
511,371	37,07
511,616	38,06
511,862	35,41
512,107	33,53
512,353	33,13
512,598	34,65
512,844	33,08
513,089	29,49
513,335	30,15
513,58	28,5
513,825	29,35
514,071	29,46
514,316	27,98
514,561	28,03
514,806	26,43
515,052	30,2
515,297	28,6
515,542	28,08
515,787	28,7
516,033	32,05
516,278	33,14
516,523	33,58
516,768	32,19
517,013	29,82
517,258	29,2
517,503	28,95
517,748	29,51
517,993	29,88
518,238	28,85
518,483	25,49
518,728	23,1
518,973	20,01
519,218	20,76
519,463	20,85
519,708	19,98
519,953	19,8
520,198	18,78
520,443	21,16
520,688	24,84
520,933	24,16
521,177	25,93
521,422	23,72
521,667	25,35
521,912	27,12
522,157	23,64
522,401	25,85
522,646	25,26
522,891	27,38
523,135	29,62
523,38	29,23
523,625	27,3
523,869	28,38
524,114	28,66
524,358	28
524,603	29,1
524,848	26,57
525,092	24,72
525,337	25,17
525,581	25,51
525,826	28,03
526,07	29,6
526,315	32,18
526,559	32,72
526,803	31,6
527,048	35,29
527,292	38,52
527,537	37,26
527,781	37,31
528,025	34,14
528,269	36,25
528,514	37,12
528,758	36,3
529,002	36,6
529,247	39,88
529,491	38,68
529,735	44,6
529,979	45,9
530,223	47
530,467	43,47
530,712	40,97
530,956	38,94
531,2	40,51
531,444	38,68
531,688	40,65
531,932	40,8
532,176	40,49
532,42	41,83
532,664	42,87
532,908	42,31
533,152	42,03
533,396	42,41
533,64	41,83
533,884	39,02
534,128	38,84
534,371	40,29
534,615	40,82
534,859	38,56
535,103	38,82
535,347	39,46
535,59	42,01
535,834	38,06
536,078	38,56
536,322	40,73
536,565	44,5
536,809	42,25
537,053	42,73
537,296	40,06
537,54	38,47
537,784	37,49
538,027	39,09
538,271	38,86
538,514	38,74
538,758	38,83
539,001	37,07
539,245	35,91
539,488	36,14
539,732	39,05
539,975	38,84
540,219	40,36
540,462	40,68
540,706	40,84
540,949	39,22
541,192	39,13
541,436	45,5
541,679	50,83
541,922	51,58
542,166	46,82
542,409	47,19
542,652	46,54
542,895	47,52
543,139	46,83
543,382	50,75
543,625	50,83
543,868	49,21
544,111	46,87
544,354	45,12
544,598	46,54
544,841	46,88
545,084	46,06
545,327	45,7
545,57	47,28
545,813	48,74
546,056	48,55
546,299	47,79
546,542	50,52
546,785	54,17
547,028	55,23
547,271	54,06
547,514	54,83
547,756	53,45
547,999	53,77
548,242	55,84
548,485	53,81
548,728	54,8
548,971	50,61
549,213	49,66
549,456	48,46
549,699	50,04
549,942	49,58
550,184	48,86
550,427	48,05
550,67	47,96
550,912	44,23
551,155	44,93
551,398	45,14
551,64	44,68
551,883	45,2
552,125	42,75
552,368	43,17
552,61	41,58
552,853	42,09
553,095	41,02
553,338	41,03
553,58	42,47
553,823	41,14
554,065	43,32
554,308	39,43
554,55	38,39
554,792	36,67
555,035	37,11
555,277	34,54
555,519	33,76
555,762	30,5
556,004	32,44
556,246	28,46
556,488	28,31
556,731	25,67
556,973	27,17
557,215	25,45
557,457	26,98
557,699	31,01
557,941	29,3
558,183	30,01
558,426	31,54
558,668	29,23
558,91	29,87
559,152	30,55
559,394	31,04
559,636	33,91
559,878	35,94
560,12	35,59
560,362	36,67
560,604	35,95
560,845	35,33
561,087	33,42
561,329	35,8
561,571	32,61
561,813	33,06
562,055	31,36
562,297	30,93
562,538	29,98
562,78	34,08
563,022	31,89
563,264	33,62
563,505	33,65
563,747	34,68
563,989	33,8
564,23	33,43
564,472	32,2
564,714	35,48
564,955	35,94
565,197	31,91
565,438	34,28
565,68	36,32
565,921	34,65
566,163	36,58
566,404	36,28
566,646	39,1
566,887	40,6
567,129	42,11
567,37	39,05
567,612	41,07
567,853	38,85
568,094	40,37
568,336	40,04
568,577	42,38
568,818	43,29
569,06	42,2
569,301	40,82
569,542	41,87
569,783	44,23
570,025	45,25
570,266	45,55
570,507	48,84
570,748	48,4
570,989	49,11
571,23	52,38
571,472	51,76
571,713	50,99
571,954	51,04
572,195	49,62
572,436	52,55
572,677	54,8
572,918	56,35
573,159	54,13
573,4	52,88
573,641	51,62
573,882	51,21
574,123	47,65
574,364	43,95
574,604	45,03
574,845	44,47
575,086	45,63
575,327	46,97
575,568	45,7
575,809	46,32
576,049	44,21
576,29	40,85
576,531	45,92
576,771	49,77
577,012	52,74
577,253	53,93
577,494	53,86
577,734	52,31
577,975	52,15
578,215	51,47
578,456	49,93
578,697	49,49
578,937	51,7
579,178	51,95
579,418	52,41
579,659	50,32
579,899	45,57
580,14	44,63
580,38	42,79
580,62	43,2
580,861	46,02
581,101	46,4
581,342	46,77
581,582	43,06
581,822	44,97
582,063	42,57
582,303	43,77
582,543	43,13
582,783	43,31
583,024	47,04
583,264	49,76
583,504	48,88
583,744	52,46
583,984	48,75
584,224	47,64
584,465	45,24
584,705	44,73
584,945	45,3
585,185	45,5
585,425	46,51
585,665	46,25
585,905	45,05
586,145	44,7
586,385	43,75
586,625	46,54
586,865	44,35
587,105	45,68
587,345	46,78
587,585	47,69
587,824	47,57
588,064	47,76
588,304	45,49
588,544	45,8
588,784	43,47
589,024	46,26
589,263	45,42
589,503	44,2
589,743	46,41
589,982	45,58
590,222	46,49
590,462	42,84
590,701	39,63
590,941	42,22
591,181	40,62
591,42	41,93
591,66	43,39
591,899	46,23
592,139	45,29
592,378	45,38
592,618	44,75
592,857	43,16
593,097	46,28
593,336	48,94
593,576	49,03
593,815	49,43
594,055	48,3
594,294	50,39
594,533	49,7
594,773	50,13
595,012	51,13
595,251	52,07
595,491	55,12
595,73	57,71
595,969	58,36
596,208	60,7
596,447	65,38
596,687	67,33
596,926	67,99
597,165	65,82
597,404	67,08
597,643	65,05
597,882	64,41
598,121	65,64
598,36	66,66
598,599	67,24
598,838	66,63
599,077	64,22
599,316	65
599,555	65,98
599,794	66,37
600,033	68,36
600,272	70,11
600,511	67,44
600,75	67,26
600,989	68,65
601,228	68,86
601,466	67,42
601,705	67,91
601,944	68,87
602,183	70,8
602,422	69,66
602,66	68,65
602,899	66,83
603,138	66,58
603,376	66,27
603,615	66,93
603,854	65,01
604,092	63,73
604,331	65,62
604,569	66,34
604,808	67,08
605,047	70,01
605,285	70,66
605,524	70,54
605,762	69,37
606	71,49
606,239	72,38
606,477	72,74
606,716	68,61
606,954	67,16
607,193	64,86
607,431	61,26
607,669	59,39
607,908	58,87
608,146	61,69
608,384	59,47
608,622	60
608,861	61,04
609,099	60,86
609,337	59,1
609,575	58,65
609,813	60,71
610,052	61,34
610,29	57,56
610,528	57,33
610,766	56,14
611,004	54,77
611,242	52,99
611,48	52,84
611,718	49,98
611,956	50,67
612,194	48,77
612,432	47,92
612,67	47,08
612,908	48,21
613,146	47,4
613,384	45,82
613,621	43,7
613,859	44,24
614,097	44,44
614,335	43,66
614,573	44,7
614,811	46,58
615,048	46,51
615,286	47,27
615,524	45,16
615,761	43,55
615,999	43,69
616,237	43,52
616,474	44,54
616,712	45,28
616,95	43,52
617,187	42,08
617,425	43,61
617,662	45,87
617,9	43,85
618,137	41,57
618,375	41,23
618,612	40,15
618,85	42,47
619,087	45,82
619,325	44,55
619,562	42,77
619,799	41,01
620,037	41,01
620,274	40,64
620,511	42,35
620,749	39,45
620,986	37,88
621,223	35,91
621,461	36,17
621,698	37,65
621,935	38,74
622,172	36,84
622,409	38,9
622,647	38,61
622,884	37,05
623,121	39,72
623,358	37,39
623,595	37,06
623,832	37,57
624,069	36,88
624,306	38,78
624,543	40,47
624,78	39,71
625,017	38,95
625,254	42,23
625,491	45,12
625,728	47,25
625,965	48,13
626,202	46,36
626,438	44,29
626,675	43,63
626,912	46,05
627,149	47,83
627,386	48,75
627,622	47,92
627,859	45,56
628,096	46,53
628,333	47,21
628,569	48,56
628,806	50,02
629,043	49,12
629,279	49,27
629,516	51,73
629,752	49,64
629,989	50,14
630,225	50,04
630,462	50,05
630,699	51,93
630,935	51,58
631,171	49,04
631,408	50,57
631,644	47,87
631,881	44,62
632,117	43,15
632,354	44,36
632,59	42,41
632,826	42,25
633,063	41,35
633,299	41,59
633,535	40,31
633,771	38,77
634,008	40,46
634,244	39,79
634,48	37,28
634,716	38,91
634,953	37,33
635,189	37,46
635,425	39,56
635,661	43,85
635,897	42,11
636,133	42,54
636,369	43,61
636,605	39,76
636,841	39,14
637,077	39,74
637,313	39,03
637,549	37,9
637,785	36,15
638,021	35,25
638,257	34,96
638,493	37,64
638,729	35,35
638,965	38,9
639,2	39,91
639,436	38,44
639,672	37,31
639,908	34,47
640,144	38,55
640,379	40,5
640,615	38,47
640,851	40,19
641,086	43,77
641,322	42,57
641,558	44,13
641,793	45,91
642,029	43,83
642,264	42,86
642,5	42,95
642,736	39,42
642,971	39,35
643,207	37,43
643,442	34,32
643,678	34,42
643,913	35,81
644,148	34,85
644,384	37,48
644,619	37,55
644,855	39,14
645,09	40,88
645,325	40,99
645,561	41,63
645,796	38,64
646,031	42,21
646,266	38,55
646,502	37,82
646,737	40,51
646,972	40,79
647,207	41,6
647,442	38,07
647,678	35,89
647,913	38,87
648,148	39,3
648,383	38,81
648,618	38,87
648,853	38,44
649,088	40,15
649,323	41,88
649,558	43,86
649,793	44,85
650,028	46,61
650,263	41,75
650,498	44,73
650,733	44,85
650,968	42,83
651,202	44,85
651,437	41,74
651,672	37,7
651,907	37,61
652,142	37,47
652,376	38,24
652,611	39,05
652,846	38,61
653,081	38,16
653,315	36,83
653,55	38,35
653,785	38,17
654,019	38,31
654,254	37,19
654,488	38,24
654,723	34,63
654,958	32,57
655,192	30,57
655,427	27,46
655,661	27,11
655,896	30,14
656,13	32,63
656,364	28,6
656,599	26,28
656,833	28,8
657,068	31,25
657,302	31,78
657,536	31,65
657,771	34,05
658,005	34,81
658,239	37,32
658,474	34,36
658,708	36,83
658,942	37,23
659,176	35,81
659,41	34,29
659,645	32,85
659,879	32,44
660,113	29,44
660,347	28,4
660,581	25,68
660,815	24,58
661,049	22,97
661,283	20,51
661,517	18,85
661,751	18,11
661,985	18,62
662,219	19,46
662,453	17,33
662,687	19,66
662,921	16,36
663,155	13,66
663,389	6,41
663,622	6,37
663,856	8,08
664,09	3,73
664,324	2,15
664,558	1,63
664,791	1,23
665,025	-0,34
665,259	-0,56
665,492	-2,58
665,726	1,41
665,96	1,37
666,193	0,63
666,427	1,71
666,661	1,43
666,894	-0,56
667,128	-1,55
667,361	1,51
667,595	2,09
667,828	1,58
668,062	1,04
668,295	3,05
668,529	3,99
668,762	4,83
668,995	4,16
669,229	7,72
669,462	8,25
669,695	10,2
669,929	8,56
670,162	9,09
670,395	7,97
670,629	9,83
670,862	11,41
671,095	8,35
671,328	9,68
671,561	7,19
671,795	6,58
672,028	8,77
672,261	9,09
672,494	10,44
672,727	9,16
672,96	10,87
673,193	10,2
673,426	13,07
673,659	14,17
673,892	14,42
674,125	14,03
674,358	15,16
674,591	14,77
674,824	14,21
675,057	14,32
675,29	13,31
675,523	14,94
675,755	13,82
675,988	14,74
676,221	17,41
676,454	15,94
676,687	17,75
676,919	16,47
677,152	17,03
677,385	16,67
677,617	17,21
677,85	18,18
678,083	17,3
678,315	20,4
678,548	18,99
678,78	18,46
679,013	19,06
679,246	19,02
679,478	19,56
679,711	17,39
679,943	19,91
680,175	15,59
680,408	19,79
680,64	16,91
680,873	17,26
681,105	17,94
681,338	21,88
681,57	20,78
681,802	21,77
682,034	21,75
682,267	25,77
682,499	28,18
682,731	25,08
682,964	24,71
683,196	22,39
683,428	19,89
683,66	17,56
683,892	19,15
684,124	21,81
684,356	24,66
684,589	25,04
684,821	24,1
685,053	24,49
685,285	24,27
685,517	24,66
685,749	25,65
685,981	26,31
686,213	26,26
686,445	26,44
686,676	24,11
686,908	26,29
687,14	24,67
687,372	25,24
687,604	21,46
687,836	22,11
688,068	20,61
688,299	19,89
688,531	17,09
688,763	21,58
688,995	18,91
689,226	21,99
689,458	19,46
689,69	17,29
689,921	16
690,153	15,49
690,384	18,33
690,616	18,58
690,848	20,32
691,079	17,59
691,311	15,37
691,542	11,58
691,774	9,42
692,005	11,46
692,237	13,55
692,468	11,88
692,699	11,39
692,931	11,35
693,162	9,29
693,393	8,86
693,625	7,7
693,856	7,99
694,087	8,19
694,319	9,11
694,55	8,32
694,781	6,79
695,012	5,54
695,243	4,44
695,475	3,64
695,706	4,57
695,937	2,52
696,168	2,7
696,399	-0,33
696,63	-1,47
696,861	-1,11
697,092	4,34
697,323	7,62
697,554	8
697,785	8,64
698,016	9,04
698,247	7,97
698,478	9,46
698,709	10,93
698,94	13,31
699,171	13,11
699,401	9,59
699,632	12,49
699,863	8,73
700,094	9,26
700,325	12,75
700,555	14,28
700,786	16,06
701,017	16,86
701,247	15,42
701,478	14,67
701,709	14,9
701,939	15,24
702,17	18,29
702,401	20,23
702,631	22,07
702,862	19,66
703,092	15,67
703,323	17,83
703,553	21,16
703,784	21,98
704,014	21,72
704,244	16,23
704,475	15,29
704,705	14,92
704,936	15,46
705,166	14,67
705,396	15,03
705,627	14,52
705,857	15,12
706,087	15,92
706,317	15,19
706,548	13,9
706,778	12,61
707,008	14,75
707,238	13,98
707,468	11,87
707,698	8,85
707,928	7,5
708,158	5,85
708,389	4,76
708,619	3,37
708,849	2,85
709,079	4,05
709,309	1,25
709,539	-0,38
709,768	-0,76
709,998	1,92
710,228	3,22
710,458	1,83
710,688	-1,42
710,918	-2,29
711,148	-2,79
711,378	-2,03
711,607	-2,76
711,837	-1,93
712,067	-2,73
712,297	-1,42
712,526	-0,34
712,756	2,06
712,986	0,17
713,215	-1,43
713,445	-2,46
713,674	-0,47
713,904	-0,42
714,134	2,07
714,363	2,38
714,593	2,18
714,822	3,49
715,052	2,9
715,281	4,48
715,511	4,04
715,74	4,6
715,969	4,26
716,199	3,39
716,428	4,03
716,657	4
716,887	6,56
717,116	4,59
717,345	4,96
717,575	6,17
717,804	6,16
718,033	6,74
718,262	5,65
718,492	7,54
718,721	8,55
718,95	8,72
719,179	7,28
719,408	7,03
719,637	3,96
719,866	0,45
720,095	1,76
720,324	-0,06
720,553	-2,76
720,782	-5,05
721,011	-5,06
721,24	-7,87
721,469	-9,79
721,698	-9,27
721,927	-9,8
722,156	-11,57
722,385	-12,37
722,613	-9,01
722,842	-7,75
723,071	-5,11
723,3	-4,05
723,529	-4,91
723,757	-3,8
723,986	-7,89
724,215	-8,5
724,443	-7,06
724,672	-6,28
724,901	-4,82
725,129	-3,01
725,358	2,25
725,586	-1,81
725,815	-2,27
726,043	-4,42
726,272	-5,58
726,5	-5,76
726,729	-4,17
726,957	-6,33
727,186	-8,7
727,414	-6,16
727,642	-4,32
727,871	-1,89
728,099	-2,29
728,327	-2,54
728,556	0,28
728,784	0,48
729,012	-0,99
729,241	1,91
729,469	1,17
729,697	-1,18
729,925	-1,76
730,153	-4,21
730,381	-4,37
730,61	-4,8
730,838	-8,08
731,066	-6,58
731,294	-5,65
731,522	-7,59
731,75	-11,27
731,978	-11,77
732,206	-13,33
732,434	-15,68
732,662	-12,84
732,89	-16,05
733,118	-15,91
733,346	-14,89
733,573	-15,37
733,801	-15,99
734,029	-9,81
734,257	-9,55
734,485	-5,94
734,712	-5,29
734,94	-7,27
735,168	-4,87
735,396	-2,9
735,623	-4,22
735,851	-3,42
736,078	-1,69
736,306	-1,94
736,534	-2,98
736,761	-2,32
736,989	-3,57
737,216	-3,66
737,444	-4,39
737,671	-2,44
737,899	3,32
738,126	3,03
738,354	3,22
738,581	4,55
738,809	6,3
739,036	3,43
739,263	3,14
739,491	1,56
739,718	1,6
739,945	7,17
740,173	8,2
740,4	7,91
740,627	7,2
740,854	7,65
741,081	4,72
741,309	4,34
741,536	-0,58
741,763	-0,18
741,99	3,12
742,217	3,73
742,444	2,57
742,671	3,69
742,898	3,7
743,125	0,95
743,352	-0,64
743,579	-0,25
743,806	-0,4
744,033	2,67
744,26	4,64
744,487	3,81
744,714	3,33
744,941	1,72
745,167	4,78
745,394	3,92
745,621	2,61
745,848	3,4
746,075	6,9
746,301	11,12
746,528	14,42
746,755	11,87
746,981	10,72
747,208	12,21
747,435	14,81
747,661	14,46
747,888	15,17
748,114	12,86
748,341	15,16
748,567	17,23
748,794	15,92
749,02	13,85
749,247	10,93
749,473	9,75
749,7	9,08
749,926	9
750,152	13,6
750,379	14,46
750,605	16,07
750,831	14,19
751,058	13,29
751,284	11,04
751,51	14,05
751,737	15,67
751,963	14,45
752,189	12,13
752,415	11,45
752,641	11,72
752,867	11,06
753,094	9,32
753,32	7,69
753,546	7,08
753,772	10,72
753,998	9,39
754,224	9,15
754,45	8,02
754,676	8,31
754,902	8,89
755,128	9,77
755,354	8,7
755,579	9,56
755,805	11,2
756,031	9,87
756,257	9,85
756,483	9,21
756,709	7,71
756,934	7,14
757,16	4,41
757,386	4,4
757,612	2,88
757,837	2,74
758,063	4,16
758,289	6,6
758,514	3,66
758,74	1,08
758,965	-0,86
759,191	1
759,416	3,18
759,642	5,69
759,868	5,15
760,093	7,48
760,318	4,88
760,544	3,33
760,769	1,51
760,995	1,08
761,22	-1,16
761,445	-0,32
761,671	1,43
761,896	3,48
762,121	4,43
762,347	5,8
762,572	2,58
762,797	2,42
763,022	2,84
763,248	6,5
763,473	7,13
763,698	8,05
763,923	8,1
764,148	8,45
764,373	8,43
764,598	8,34
764,823	10,86
765,048	7,49
765,273	3,88
765,498	3,75
765,723	3,83
765,948	5,18
766,173	4,42
766,398	4,3
766,623	0,21
766,848	0,99
767,073	-0,7
767,298	-0,59
767,522	-0,32
767,747	0,92
767,972	0,16
768,197	2,48
768,421	2,71
768,646	-0,22
768,871	-3,63
769,095	-3,5
769,32	-3,73
769,545	-2,41
769,769	-1,28
769,994	0,44
770,218	-2,2
770,443	0,25
770,667	0,94
770,892	1,19
771,116	-1,06
771,341	1,41
771,565	2,02
771,79	1,19
772,014	0,61
772,238	0,64
772,463	3,39
772,687	4,21
772,911	4,14
773,136	2,09
773,36	2,17
773,584	3,81
773,808	2,19
774,033	2,7
774,257	2,96
774,481	1,76
774,705	0,88
774,929	1,06
775,153	0,44
775,377	0,98
775,602	0,77
775,826	2,23
776,05	4,44
776,274	2,31
776,498	2,51
776,722	0,68
776,945	1,16
777,169	0,36
777,393	-2,32
777,617	-3,74
777,841	-3,23
778,065	-0,38
778,289	-2,18
778,512	-2,44
778,736	-1,89
778,96	-1,49
779,184	2,63
779,407	1,74
779,631	0,85
779,855	-0,82
780,078	0,48
780,302	-0,49
780,526	-1,9
780,749	-2,56
780,973	-0,46
781,196	-0,43
781,42	-1,19
781,643	-0,76
781,867	0,89
782,09	-2,22
782,314	-3,14
782,537	-3,07
782,76	-4,61
782,984	-4,44
783,207	-2,74
783,431	-3,6
783,654	-4,57
783,877	-5,83
784,1	-5,71
784,324	-5,56
784,547	-5,82
784,77	-9,47
784,993	-10,81
785,216	-12,36
785,44	-12,95
785,663	-13,95
785,886	-12,26
786,109	-15,05
786,332	-14,7
786,555	-12,35
786,778	-9,77
787,001	-10,04
787,224	-9,55
787,447	-9,19
787,67	-6,26
787,893	-6,85
788,116	-6,6
788,339	-5,69
788,561	-6,75
788,784	-10,04
789,007	-10,57
789,23	-12,71
789,453	-12,03
789,675	-13,61
789,898	-15,64
790,121	-18,26
790,344	-17,87
790,566	-15,87
790,789	-15,54
791,012	-15,96
791,234	-13,76
791,457	-10,41
791,679	-7,98
791,902	-7,15
792,124	-5,97
792,347	-6,8
792,569	-7,29
792,792	-9,11
793,014	-5,35
793,237	-4,35
793,459	-4,92
793,681	-5,18
793,904	-6,12
794,126	-7,28
794,348	-6,66
794,571	-6,96
794,793	-9,43
795,015	-8,41
795,237	-9,67
795,46	-7,52
795,682	-7,41
795,904	-3,41
796,126	-4,08
796,348	-4,77
796,57	-1,17
796,792	-1,56
797,014	3,61
797,237	6,17
797,459	7,8
797,681	9,59
797,903	7,83
798,124	9,12
798,346	20,52
798,568	21,98
798,79	24,22
799,012	24,96
799,234	26,11
799,456	28,12
799,678	29,35
799,899	26,21
800,121	23,52
800,343	22,75
800,565	23,58
800,786	25,22
801,008	27,4
801,23	26,25
801,451	26,36
801,673	25,75
801,895	25,23
802,116	27,8
802,338	27,45
802,559	28,09
802,781	25,34
803,002	27,9
803,224	29,19
803,445	26,89
803,667	29,13
803,888	25,5
804,109	24,61
804,331	24,02
804,552	21,97
804,773	25,17
804,995	21,78
805,216	7,5
805,437	4,53
805,658	2,31
805,88	1,09
806,101	1,92
806,322	1,07
806,543	0,4
806,764	-1,36
806,985	0,73
807,207	1,88
807,428	0,91
807,649	-2,59
807,87	-5,12
808,091	-4,11
808,312	-2,98
808,533	2,95
808,754	5,74
808,975	4,12
809,195	6,63
809,416	7,1
809,637	7,24
809,858	4,86
810,079	3,67
810,3	6,36
810,52	5,37
810,741	3,91
810,962	1,62
811,183	-0,83
811,403	-0,83
811,624	-2,08
811,845	-0,64
812,065	1,6
812,286	2,36
812,506	3,19
812,727	2,71
812,948	3,69
813,168	5,72
813,389	4,44
813,609	6,01
813,83	5,33
814,05	3,33
814,27	3,78
814,491	6,97
814,711	7,01
814,931	4,72
815,152	4,7
815,372	2,2
815,592	0,53
815,813	0,17
816,033	-1,86
816,253	-1,44
816,473	-1,76
816,694	0,98
816,914	2,9
817,134	3,22
817,354	1,08
817,574	2,26
817,794	3,11
818,014	1,65
818,234	1,39
818,454	0,6
818,674	-1,8
818,894	-6,02
819,114	-3,25
819,334	-3,86
819,554	-0,9
819,774	-0,17
819,994	-1,65
820,214	-1,6
820,433	-1,43
820,653	-2,87
820,873	-0,42
821,093	1,17
821,312	0,18
821,532	3,04
821,752	5,56
821,972	2,42
822,191	3,06
822,411	2,05
822,63	1,9
822,85	2,31
823,07	1,48
823,289	1,33
823,509	-1,82
823,728	-0,04
823,948	-2,65
824,167	-2,18
824,387	-3,27
824,606	-2,11
824,825	-1,55
825,045	-1,59
825,264	-1,53
825,483	0,55
825,703	2,62
825,922	0,61
826,141	-0,29
826,361	-0,91
826,58	-4,62
826,799	-6,79
827,018	-4,64
827,237	-4,36
827,456	-1,99
827,676	-1,69
827,895	-2,13
828,114	-0,95
828,333	-1,8
828,552	-0,93
828,771	0,97
828,99	-2,19
829,209	-1,79
829,428	1,26
829,647	0,62
829,866	0,19
830,084	0,26
830,303	2,26
830,522	0,22
830,741	0,21
830,96	0,61
831,179	2,19
831,397	-0,41
831,616	0,78
831,835	0,11
832,053	1,19
832,272	1,31
832,491	2,9
832,709	2,93
832,928	3,44
833,147	2,71
833,365	4,93
833,584	7,01
833,802	7,62
834,021	6,99
834,239	8,21
834,458	6,36
834,676	2,34
834,894	1,16
835,113	0,33
835,331	-0,42
835,55	-1,38
835,768	0,36
835,986	0,92
836,204	-1,67
836,423	-0,87
836,641	0,59
836,859	-0,35
837,077	0,14
837,296	1,64
837,514	1,26
837,732	0,09
837,95	-1,15
838,168	1,91
838,386	0,74
838,604	3,8
838,822	3,82
839,04	3,35
839,258	3,71
839,476	4,47
839,694	4,67
839,912	3,83
840,13	3,78
840,348	6,07
840,566	3,09
840,783	5,42
841,001	2,41
841,219	3,58
841,437	4,79
841,655	6,02
841,872	5,27
842,09	3,56
842,308	5,03
842,525	4,4
842,743	4,09
842,961	3,95
843,178	1,88
843,396	4,53
843,613	5,48
843,831	6,67
844,048	4,82
844,266	5,53
844,483	5,15
844,701	3,58
844,918	4,67
845,136	5,93
845,353	3,89
845,57	5,19
845,788	8,1
846,005	5
846,222	2,63
846,439	2,97
846,657	3,33
846,874	3,72
847,091	1,41
847,308	4,38
847,526	2,23
847,743	2,33
847,96	0,21
848,177	0,53
848,394	0,2
848,611	0,16
848,828	0,62
849,045	-0,32
849,262	-0,31
849,479	-0,38
849,696	-1,11
849,913	-2,1
850,13	-6,69
850,347	-4,46
850,564	-6,11
850,78	-7,81
850,997	-9,44
851,214	-8,82
851,431	-7,32
851,647	-11,57
851,864	-10,68
852,081	-8,49
852,298	-13,06
852,514	-14,84
852,731	-12,83
852,948	-10,05
853,164	-8,76
853,381	-8,43
853,597	-9,46
853,814	-11,2
854,03	-14,95
854,247	-13,15
854,463	-12,95
854,68	-13,06
854,896	-12,31
855,113	-13,35
855,329	-11,8
855,545	-10,29
855,762	-11,18
855,978	-14,45
856,194	-15,2
856,411	-12,2
856,627	-11,58
856,843	-10,69
857,059	-8,81
857,275	-8,66
857,492	-6,18
857,708	-3,51
857,924	-1,91
858,14	1,14
858,356	0,29
858,572	-0,39
858,788	-2,47
859,004	-0,73
859,22	-2,54
859,436	-2,34
859,652	-3,65
859,868	-5,3
860,084	-6,4
860,3	-6,21
860,516	-5,52
860,731	-3,89
860,947	-6,7
861,163	-4,6
861,379	-2,9
861,595	-0,79
861,81	0,09
862,026	-0,61
862,242	-0,85
862,457	-0,5
862,673	1,92
862,889	2,07
863,104	1,33
863,32	2,75
863,535	3,2
863,751	-0,57
863,966	1,76
864,182	2,29
864,397	1,31
864,613	-0,36
864,828	-2,74
865,044	-0,78
865,259	-0,57
865,474	-1,49
865,69	1,12
865,905	2,06
866,12	0,83
866,336	1,11
866,551	2,24
866,766	1,72
866,981	0,73
867,196	0,22
867,412	0,68
867,627	1,31
867,842	-0,3
868,057	-0,83
868,272	-3,42
868,487	-4,64
868,702	-6,76
868,917	-7,58
869,132	-5,57
869,347	-4,46
869,562	-5,29
869,777	-5,78
869,992	-6,88
870,207	-7,32
870,422	-8,01
870,636	-10,21
870,851	-12,96
871,066	-14,93
871,281	-15,23
871,495	-15,57
871,71	-12,6
871,925	-14,55
872,14	-14,62
872,354	-17,98
872,569	-19,21
872,783	-17,48
872,998	-16,54
873,213	-16,77
873,427	-13,87
873,642	-12,22
873,856	-10,98
874,071	-11,92
874,285	-12,01
874,5	-13,14
874,714	-15,57
874,928	-15,8
875,143	-15,42
875,357	-14,67
875,571	-15,3
875,786	-14,56
876	-12,38
876,214	-11,12
876,429	-13,58
876,643	-13,53
876,857	-11,68
877,071	-10,64
877,285	-11,23
877,499	-12,05
877,714	-8,82
877,928	-6,29
878,142	-7,78
878,356	-11,09
878,57	-10,25
878,784	-7,75
878,998	-7,66
879,212	-5,87
879,426	-7,66
879,639	-6,55
879,853	-8,62
880,067	-9,48
880,281	-11,57
880,495	-10,77
880,709	-8,35
880,922	-7,78
881,136	-5,9
881,35	-4,17
881,564	-3,27
881,777	-5,3
881,991	-3,53
882,205	0,62
882,418	-1,17
882,632	-3,47
882,845	-3,15
883,059	-2,3
883,273	-2,49
883,486	-3,89
883,7	-1,94
883,913	-2,5
884,126	-1,84
884,34	-5,28
884,553	-7,62
884,767	-3,95
884,98	-2,34
885,193	-2,81
885,407	-4,37
885,62	-2,66
885,833	-2,32
886,046	-1,65
886,26	-3,96
886,473	-3,5
886,686	-4,35
886,899	-2,31
887,112	-3,45
887,326	-5,71
887,539	-5,15
887,752	-5
887,965	-7,04
888,178	-7,09
888,391	-6,09
888,604	-7,44
888,817	-10,16
889,03	-8,52
889,243	-9,71
889,455	-13,41
889,668	-11,71
889,881	-8,48
890,094	-10,45
890,307	-12,22
890,52	-10,31
890,732	-8,74
890,945	-8,82
891,158	-8,38
891,37	-10,82
891,583	-10,96
891,796	-9,51
892,008	-11,02
892,221	-11,35
892,434	-14,84
892,646	-13,33
892,859	-14,34
893,071	-12,34
893,284	-10,38
893,496	-11,02
893,709	-11,33
893,921	-10,97
894,133	-11,94
894,346	-12,97
894,558	-11,71
894,771	-11,36
894,983	-8,52
895,195	-7,04
895,407	-6,67
895,62	-10,24
895,832	-9,13
896,044	-6,04
896,256	-7,03
896,468	-9,28
896,681	-6,2
896,893	-5,99
897,105	-7,05
897,317	-8,4
897,529	-4,73
897,741	-4,06
897,953	-1,19
898,165	-2,66
898,377	-5,04
898,589	-3,87
898,801	-3,97
899,013	-1,28
899,224	-0,86
899,436	1,39
899,648	0,1
899,86	-2,01
900,072	0,55
900,283	2,53
900,495	4,53
900,707	4,87
900,919	3,71
901,13	5,82
901,342	3,75
901,554	2,1
901,765	1,21
901,977	-0,89
902,188	-0,67
902,4	-2,33
902,611	-3,79
902,823	-5,92
903,034	-7,74
903,246	-9,2
903,457	-8,85
903,669	-9,55
903,88	-9,05
904,091	-11,09
904,303	-10,82
904,514	-12,98
904,725	-11,36
904,936	-9,88
905,148	-9,42
905,359	-6,7
905,57	-6,9
905,781	-9,39
905,992	-9,97
906,204	-9,62
906,415	-8,83
906,626	-11,14
906,837	-9,45
907,048	-10,42
907,259	-11,37
907,47	-13,1
907,681	-15,96
907,892	-13,13
908,103	-13,8
908,314	-15,37
908,525	-12,57
908,735	-11,75
908,946	-12,15
909,157	-12,12
909,368	-9,26
909,579	-7,66
909,789	-9,86
910	-11,23
910,211	-9,5
910,421	-9,39
910,632	-7,98
910,843	-9,62
911,053	-6,75
911,264	-4,65
911,475	-4,79
911,685	-4,47
911,896	-5,35
912,106	-4,74
912,317	-5,11
912,527	-4,09
912,737	-4,16
912,948	-4,44
913,158	-5,22
913,369	-10,02
913,579	-7,79
913,789	-6,02
914	-1,59
914,21	-0,15
914,42	-1,18
914,63	-1,56
914,841	-0,52
915,051	-0,56
915,261	-0,01
915,471	2,63
915,681	3,73
915,891	4,23
916,101	3,13
916,311	4,22
916,521	4,36
916,731	4,48
916,941	5,93
917,151	4,91
917,361	7,62
917,571	4,49
917,781	3,28
917,991	0,56
918,201	0,47
918,411	-2,14
918,621	-3,57
918,83	-2,34
919,04	-4,48
919,25	-2,58
919,46	-1,33
919,669	-3
919,879	-1,94
920,089	-3,79
920,298	-5,35
920,508	-6,12
920,717	-5,3
920,927	-6,51
921,136	-6,07
921,346	-5,63
921,555	-7,82
921,765	-8,85
921,974	-10,32
922,184	-12,89
922,393	-13,38
922,603	-14,21
922,812	-12,32
923,021	-12,23
923,23	-14,11
923,44	-16,15
923,649	-17,05
923,858	-18,21
924,067	-17,59
924,277	-20,49
924,486	-18,16
924,695	-19,01
924,904	-16,68
925,113	-15,44
925,322	-14,25
925,531	-12,61
925,74	-14,45
925,949	-16,22
926,158	-13,56
926,367	-14,28
926,576	-14,11
926,785	-14,58
926,994	-15,66
927,203	-14,78
927,412	-14,76
927,621	-15,88
927,83	-15,56
928,038	-14,98
928,247	-14,71
928,456	-15,39
928,665	-14,18
928,873	-12,65
929,082	-10,43
929,291	-10,43
929,499	-8,73
929,708	-9,38
929,916	-8,36
930,125	-9,48
930,333	-10,42
930,542	-8,92
930,75	-4,69
930,959	-4,29
931,167	-4,14
931,376	-5,61
931,584	-5,5
931,793	-5,49
932,001	-7,11
932,209	-9,65
932,418	-10,29
932,626	-11,09
932,834	-11,15
933,042	-14,86
933,251	-15,13
933,459	-14,39
933,667	-16,63
933,875	-15,38
934,083	-13,07
934,291	-12,32
934,499	-11,55
934,707	-11,06
934,915	-9,35
935,123	-7,05
935,331	-9,08
935,539	-11,5
935,747	-12,49
935,955	-13,85
936,163	-12,44
936,371	-12,46
936,579	-9,76
936,787	-9,29
936,995	-10,57
937,202	-12,54
937,41	-12,09
937,618	-13,1
937,826	-12,46
938,033	-15,88
938,241	-17,76
938,449	-14,1
938,656	-11,55
938,864	-12,12
939,071	-12
939,279	-8,94
939,486	-5,56
939,694	-5,46
939,901	-6,98
940,109	-5,98
940,316	-6,03
940,524	-6,88
940,731	-7,8
940,939	-7,59
941,146	-8,24
941,353	-10,82
941,561	-11,4
941,768	-12,02
941,975	-9,86
942,182	-10,98
942,39	-10,65
942,597	-8,5
942,804	-8,34
943,011	-9,04
943,218	-7,97
943,425	-7,54
943,632	-7,04
943,839	-7,53
944,046	-6,52
944,253	-6,9
944,46	-6,46
944,667	-3,14
944,874	-4,95
945,081	-1,89
945,288	0,23
945,495	1,13
945,702	1,13
945,909	-0,26
946,115	1,15
946,322	0,22
946,529	-0,13
946,736	-0,53
946,942	1,21
947,149	-0,52
947,356	-2,07
947,562	-3,83
947,769	-4,13
947,976	-4,56
948,182	-3,75
948,389	-4,29
948,595	-3,04
948,802	-2,63
949,008	-4,82
949,215	-3,79
949,421	-4,59
949,628	-5,71
949,834	-6,32
950,04	-7,84
950,247	-3,82
950,453	-3,01
950,659	-4,53
950,865	-2,7
951,072	-6,88
951,278	-4,4
951,484	-6,49
951,69	-9,86
951,896	-11,2
952,103	-12,57
952,309	-10,85
952,515	-11,39
952,721	-9,16
952,927	-8,35
953,133	-9,38
953,339	-11,89
953,545	-9,84
953,751	-7,19
953,957	-3,59
954,163	-3,8
954,369	-3,66
954,574	-4,26
954,78	-4,77
954,986	-3,35
955,192	-1,44
955,398	-1,06
955,603	-4,08
955,809	-3,32
956,015	-2,8
956,22	-2,32
956,426	-1,76
956,632	-5,46
956,837	-6,11
957,043	-5,18
957,248	-3,26
957,454	-2,57
957,66	-4,68
957,865	-5,21
958,07	-3,48
958,276	-4,73
958,481	-6,86
958,687	-8,18
958,892	-7,97
959,097	-8,91
959,303	-10,04
959,508	-9,68
959,713	-9,5
959,919	-9,24
960,124	-11,43
960,329	-10,57
960,534	-8,08
960,739	-7,3
960,945	-5,32
961,15	-5,2
961,355	-7,3
961,56	-11,08
961,765	-11,88
961,97	-10,51
962,175	-7,16
962,38	-10,73
962,585	-10,37
962,79	-11,65
962,995	-12,34
963,2	-13,81
963,404	-13,87
963,609	-17,42
963,814	-17,49
964,019	-21,51
964,224	-24,06
964,428	-22,71
964,633	-20,29
964,838	-18,09
965,042	-17,99
965,247	-19
965,452	-18,92
965,656	-16,94
965,861	-16,95
966,066	-16,96
966,27	-16,49
966,475	-12,11
966,679	-17
966,884	-16,36
967,088	-19,88
967,292	-20,69
967,497	-19,44
967,701	-21,21
967,906	-19,36
968,11	-16,67
968,314	-14,01
968,518	-16,96
968,723	-13,61
968,927	-12,46
969,131	-11,16
969,335	-8,84
969,539	-8,57
969,744	-6,45
969,948	-3,84
970,152	-3,41
970,356	-0,94
970,56	-0,65
970,764	-1,9
970,968	0,72
971,172	1,14
971,376	1,59
971,58	1,66
971,784	3,35
971,988	1,29
972,192	3,76
972,395	2,48
972,599	-0,26
972,803	-2,81
973,007	-0,36
973,21	-0,03
973,414	0,62
973,618	-0,49
973,822	-1
974,025	0,81
974,229	0,02
974,432	-4,3
974,636	-6,75
974,84	-4,16
975,043	-4,71
975,247	-6,8
975,45	-8,18
975,654	-7,54
975,857	-5,51
976,06	-6,1
976,264	-7,5
976,467	-6,19
976,671	-6,63
976,874	-4,38
977,077	-4,54
977,28	-7,23
977,484	-10,42
977,687	-11,87
977,89	-9,47
978,093	-11,01
978,297	-9,39
978,5	-11,06
978,703	-9,31
978,906	-7,31
979,109	-6,59
979,312	-5,97
979,515	-7,49
979,718	-8,05
979,921	-7,33
980,124	-10,05
980,327	-10,07
980,53	-9,17
980,733	-6,67
980,936	-4,71
981,138	-7,53
981,341	-5,43
981,544	-5,09
981,747	-6,26
981,949	-8,1
982,152	-7,15
982,355	-9,28
982,558	-6,72
982,76	-9,27
982,963	-8,58
983,165	-9,24
983,368	-8,6
983,571	-7,5
983,773	-3,58
983,976	-2,65
984,178	-1,98
984,381	-1,08
984,583	-3,26
984,785	-2,16
984,988	0,99
985,19	1,5
985,392	-1,16
985,595	-3,23
985,797	-2,05
985,999	1,97
986,202	3,19
986,404	3,69
986,606	6,33
986,808	4,33
987,01	4,91
987,212	5,42
987,415	3,71
987,617	3,8
987,819	3,24
988,021	6,48
988,223	3,84
988,425	2,89
988,627	3,89
988,829	0,08
989,031	2,8
989,232	1,51
989,434	2,11
989,636	1,91
989,838	-0,26
990,04	1,16
990,242	1,51
990,443	-0,95
990,645	0,76
990,847	3,29
991,048	1,88
991,25	-0,65
991,452	-1,34
991,653	-1,91
991,855	-2,53
992,057	-3,56
992,258	-3,49
992,46	-4,11
992,661	-2,97
992,863	-4,36
993,064	-3,36
993,265	-4,2
993,467	-6,29
993,668	-3,8
993,87	-4,46
994,071	-4,59
994,272	-5,33
994,473	-2,15
994,675	-2,3
994,876	-1,62
995,077	-0,16
995,278	-0,33
995,48	0,25
995,681	-1,18
995,882	0,19
996,083	1,07
996,284	-3,87
996,485	-3,76
996,686	-4,59
996,887	-6,5
997,088	-10,05
997,289	-11,4
997,49	-12,2
997,691	-11,83
997,892	-11,6
998,092	-6,03
998,293	-5,58
998,494	-6,55
998,695	-7,93
998,896	-5,18
999,096	-4,73
999,297	-4,32
999,498	-6,36
999,698	-8,01
999,899	-10,97
1000,1	-13,22
1000,3	-13,31
1000,501	-13,39
1000,701	-12,88
1000,902	-12,6
1001,102	-12,74
1001,303	-12,09
1001,503	-13,87
1001,704	-13,63
1001,904	-13,24
1002,105	-13,73
1002,305	-14,26
1002,505	-14,88
1002,706	-17
1002,906	-17,09
1003,106	-17,81
1003,306	-16,13
1003,507	-13,14
1003,707	-12,39
1003,907	-10,59
1004,107	-8,9
1004,307	-11,94
1004,507	-10,73
1004,707	-11,2
1004,907	-11,52
1005,107	-13,22
1005,308	-13,27
1005,507	-15,31
1005,707	-12,29
1005,907	-12,1
1006,107	-9,08
1006,307	-7,65
1006,507	-7,16
1006,707	-6,77
1006,907	-7,46
1007,106	-9,11
1007,306	-9,12
1007,506	-7,57
1007,706	-8,05
1007,905	-9,29
1008,105	-9,86
1008,305	-11,08
1008,504	-10,2
1008,704	-4,26
1008,903	-2,63
1009,103	-0,12
1009,303	-1,49
1009,502	-1,43
1009,702	-3,25
1009,901	-3,61
1010,1	-7,29
1010,3	-5,68
1010,499	-7,26
1010,699	-8,9
1010,898	-10,73
1011,097	-11,07
1011,296	-10,33
1011,496	-11,25
1011,695	-9,76
1011,894	-11,09
1012,093	-9,42
1012,293	-8,55
1012,492	-9,85
1012,691	-10,66
1012,89	-11,27
1013,089	-13,7
1013,288	-12,84
1013,487	-11,78
1013,686	-13,05
1013,885	-14,21
1014,084	-14,18
1014,283	-14,44
1014,482	-15,05
1014,681	-14,13
1014,88	-17,86
1015,078	-16,91
1015,277	-19,74
1015,476	-20,33
1015,675	-20,76
1015,873	-20,69
1016,072	-22,72
1016,271	-20,31
1016,47	-23,24
1016,668	-20,63
1016,867	-22,29
1017,065	-22,41
1017,264	-22,76
1017,463	-23,82
1017,661	-24,29
1017,86	-24,29
1018,058	-23,85
1018,256	-25,15
1018,455	-26,93
1018,653	-25,38
1018,852	-23,51
1019,05	-25,71
1019,248	-25,73
1019,447	-26,64
1019,645	-27,82
1019,843	-29,27
1020,041	-27,53
1020,24	-26,05
1020,438	-22,33
1020,636	-22,77
1020,834	-25,48
1021,032	-24,11
1021,23	-25,06
1021,428	-22,7
1021,626	-19,42
1021,824	-19,66
1022,022	-20,2
1022,22	-17,43
1022,418	-16,78
1022,616	-17,95
1022,814	-19,45
1023,012	-18,55
1023,21	-15,79
1023,408	-15,25
1023,606	-15,85
1023,803	-11,82
1024,001	-11,31
1024,199	-13,8
1024,397	-12,96
1024,594	-13,34
1024,792	-15,96
1024,99	-16,42
1025,187	-13,92
1025,385	-10,23
1025,582	-9,68
1025,78	-9,8
1025,977	-7,87
1026,175	-7,52
1026,372	-8,27
1026,57	-10,55
1026,767	-7,79
1026,965	-7,5
1027,162	-6,98
1027,359	-8,01
1027,557	-7,73
1027,754	-10,58
1027,951	-11,07
1028,148	-9,18
1028,346	-12,03
1028,543	-13,76
1028,74	-14,16
1028,937	-16
1029,134	-16,51
1029,331	-18,78
1029,528	-17,53
1029,725	-18,2
1029,923	-21,84
1030,12	-19,24
1030,317	-16,65
1030,513	-15,2
1030,71	-13,59
1030,907	-10,9
1031,104	-10,96
1031,301	-13,26
1031,498	-14,07
1031,695	-13,26
1031,892	-13,31
1032,088	-14,67
1032,285	-15,44
1032,482	-16,59
1032,678	-19,44
1032,875	-21,43
1033,072	-20,14
1033,268	-20,67
1033,465	-19,52
1033,662	-21,96
1033,858	-21,29
1034,055	-20,06
1034,251	-17,18
1034,448	-17,28
1034,644	-16,83
1034,84	-12,17
1035,037	-10,33
1035,233	-10,1
1035,43	-8,48
1035,626	-10,4
1035,822	-9,24
1036,019	-7,56
1036,215	-10,41
1036,411	-12,12
1036,607	-13,65
1036,803	-16,91
1037	-17,34
1037,196	-18,63
1037,392	-18,97
1037,588	-22,21
1037,784	-22,91
1037,98	-23,64
1038,176	-23,45
1038,372	-24,71
1038,568	-23,21
1038,764	-19,76
1038,96	-17,43
1039,156	-18,95
1039,352	-19,83
1039,547	-18,52
1039,743	-17,25
1039,939	-14,3
1040,135	-15,53
1040,331	-19,04
1040,526	-17,55
1040,722	-16,83
1040,918	-19,85
1041,113	-23,2
1041,309	-22,82
1041,505	-24,35
1041,7	-23,17
1041,896	-22,96
1042,091	-24,41
1042,287	-24,1
1042,482	-23,07
1042,678	-23,19
1042,873	-21,43
1043,069	-22,22
1043,264	-21,75
1043,459	-20,05
1043,655	-17,36
1043,85	-17,18
1044,045	-16,06
1044,24	-15,93
1044,436	-13,12
1044,631	-12,98
1044,826	-14,7
1045,021	-17,51
1045,216	-16,13
