Data from led_4000k_2_FLMT021711__13__17-34-08-866.txt Node

Date: Tue Nov 05 17:34:08 CET 2024
User: Etudiants TP
Spectrometer: FLMT02171
Trigger mode: 0
Integration Time (sec): 1,000000E-1
Scans to average: 5
Electric dark correction enabled: true
Nonlinearity correction enabled: true
Boxcar width: 15
XAxis mode: Wavelengths
Number of Pixels in Spectrum: 3648
>>>>>Begin Spectral Data<<<<<
194,658	-59,05
194,923	-57,07
195,188	-49,99
195,453	-49,27
195,717	-44,42
195,982	-43,1
196,247	-41,09
196,512	-44,15
196,777	-43,9
197,042	-42,87
197,307	-43,36
197,572	-39,16
197,837	-38,08
198,101	-36,24
198,366	-33
198,631	-30,79
198,896	-25,37
199,161	-18,64
199,425	-12,15
199,69	-1,9
199,955	-2,31
200,22	-4,11
200,484	-4,16
200,749	-5,72
201,014	-3,87
201,278	-3,8
201,543	-1,5
201,807	-2,47
202,072	-1,32
202,337	-0,41
202,601	-0,79
202,866	-3,75
203,13	-1,81
203,395	-3,68
203,659	-3,43
203,924	-5,19
204,189	-3,72
204,453	-2,79
204,717	-0,47
204,982	1,86
205,246	3,82
205,511	5,97
205,775	5,22
206,04	9,23
206,304	9,77
206,568	12,24
206,833	12,24
207,097	13,7
207,361	14,72
207,626	18,65
207,89	18,59
208,154	18,52
208,419	19,48
208,683	18,8
208,947	22,14
209,211	21,71
209,476	22,59
209,74	22,78
210,004	23,04
210,268	23,67
210,532	26,22
210,796	26,08
211,061	27,8
211,325	27,53
211,589	26
211,853	26,64
212,117	26,41
212,381	26,3
212,645	27,33
212,909	28,23
213,173	26,27
213,437	26,36
213,701	27,83
213,965	28,01
214,229	23,93
214,493	24,56
214,757	21,05
215,021	19,85
215,285	23,1
215,549	25,01
215,813	22,4
216,077	22,97
216,34	25,48
216,604	23,99
216,868	24,87
217,132	25,82
217,396	24,66
217,659	23,89
217,923	19,71
218,187	19,93
218,451	19,28
218,714	16,69
218,978	17,12
219,242	19,91
219,505	19,78
219,769	21,38
220,033	20,65
220,296	21,82
220,56	21,94
220,824	19,41
221,087	20,53
221,351	20,53
221,614	18,45
221,878	17,86
222,142	17,63
222,405	17,16
222,669	19,03
222,932	15,43
223,196	15,26
223,459	11,48
223,722	11,97
223,986	10,81
224,249	8,95
224,513	9,44
224,776	10,48
225,04	10,19
225,303	9,51
225,566	9,69
225,83	11,51
226,093	14,24
226,356	11,8
226,62	8,36
226,883	10,51
227,146	10,29
227,409	8,7
227,673	7,41
227,936	6,6
228,199	7,46
228,462	5,67
228,725	4,74
228,989	3,56
229,252	3,84
229,515	8,54
229,778	8,47
230,041	8,89
230,304	6,27
230,567	8,09
230,83	6,59
231,093	9,89
231,356	9,9
231,619	17,46
231,882	16,84
232,145	18,46
232,408	17,72
232,671	15,78
232,934	16,54
233,197	15,91
233,46	13,94
233,723	16,8
233,986	15,89
234,249	13,13
234,512	15,41
234,775	20,95
235,037	20,14
235,3	20,38
235,563	19,76
235,826	20,46
236,089	22,45
236,351	21,51
236,614	24,64
236,877	25,82
237,14	28,64
237,402	28,07
237,665	22,69
237,928	22,89
238,19	20,15
238,453	22,96
238,716	22,08
238,978	21,58
239,241	20,22
239,503	22,71
239,766	16,77
240,029	14,15
240,291	17,43
240,554	17,98
240,816	18,31
241,079	17,8
241,341	17,42
241,604	17,92
241,866	14,48
242,129	15,77
242,391	18,69
242,653	18,44
242,916	18,8
243,178	18
243,441	20,74
243,703	19,04
243,965	17,31
244,228	17,58
244,49	18,61
244,752	19,47
245,015	19,43
245,277	20,51
245,539	19,77
245,801	20,41
246,064	19,75
246,326	19,12
246,588	17,97
246,85	19,24
247,112	18,94
247,374	20,69
247,637	21,61
247,899	21,24
248,161	22,14
248,423	16,65
248,685	17,06
248,947	16,69
249,209	16,29
249,471	16,96
249,733	17,25
249,995	15,83
250,257	14,41
250,519	13,95
250,781	16,32
251,043	12,71
251,305	14,1
251,567	14,13
251,829	15,33
252,091	14,73
252,353	10,78
252,615	10,33
252,876	8
253,138	5,89
253,4	2,78
253,662	2,8
253,924	5,37
254,185	7,85
254,447	8,31
254,709	8,75
254,971	9,97
255,232	13,77
255,494	12,95
255,756	10,31
256,017	10,66
256,279	10,9
256,541	11,2
256,802	10,21
257,064	10,99
257,326	9,99
257,587	10,59
257,849	11,74
258,11	14,46
258,372	15,88
258,633	15,35
258,895	14,58
259,156	14,14
259,418	13,07
259,679	9,95
259,941	8,78
260,202	11,4
260,464	13,06
260,725	11,56
260,987	11,7
261,248	11,57
261,509	12,19
261,771	11,55
262,032	12,38
262,293	10,97
262,555	11,48
262,816	10,4
263,077	8,15
263,338	2,99
263,6	3,45
263,861	3,13
264,122	2,63
264,383	4,44
264,645	5,15
264,906	4,24
265,167	4,54
265,428	3,93
265,689	5,23
265,95	2,53
266,211	3,59
266,473	2,45
266,734	-0,33
266,995	-2,95
267,256	-1,61
267,517	0,28
267,778	2,91
268,039	4
268,3	3,09
268,561	1,72
268,822	6,17
269,083	3,53
269,344	3,24
269,604	2,31
269,865	2,97
270,126	-1,61
270,387	-0,04
270,648	0,84
270,909	-0,62
271,17	-1,05
271,43	-4,31
271,691	-6,71
271,952	-7,47
272,213	-5,8
272,473	-7,67
272,734	-5,05
272,995	-2,45
273,256	-1,96
273,516	0,68
273,777	-2,49
274,038	-0,04
274,298	-2,61
274,559	-2,69
274,82	2,35
275,08	4,02
275,341	5,84
275,601	5,63
275,862	3,95
276,122	4,45
276,383	5,08
276,643	6,89
276,904	4,05
277,164	7,85
277,425	7,01
277,685	11,66
277,946	11,78
278,206	13,58
278,467	15,29
278,727	15,86
278,987	17,11
279,248	17,21
279,508	21,06
279,768	23,24
280,029	25,07
280,289	22,46
280,549	21,1
280,81	20,06
281,07	18,1
281,33	20,43
281,59	19,77
281,851	22,79
282,111	22,58
282,371	21,2
282,631	21,9
282,891	20,41
283,151	19,3
283,412	16,35
283,672	14,75
283,932	14,03
284,192	14,73
284,452	12,8
284,712	9,67
284,972	9,87
285,232	6,89
285,492	10,1
285,752	6,85
286,012	12,93
286,272	15,06
286,532	12,68
286,792	12,19
287,052	13,15
287,312	12,93
287,571	11,71
287,831	11,81
288,091	7,93
288,351	7,94
288,611	12,07
288,871	10,94
289,13	12,97
289,39	7,29
289,65	6,71
289,91	3,83
290,17	5,3
290,429	9,95
290,689	7,7
290,949	4,01
291,208	5,58
291,468	9,12
291,728	11,11
291,987	12,52
292,247	11,05
292,506	13,5
292,766	17,05
293,026	15,35
293,285	16,72
293,545	20,6
293,804	21,26
294,064	16,92
294,323	13,29
294,583	12,96
294,842	14,11
295,102	14,18
295,361	14,29
295,621	14,7
295,88	15,84
296,139	16,76
296,399	18,27
296,658	12,51
296,917	12,41
297,177	8,63
297,436	11,21
297,695	9,78
297,955	11,52
298,214	10,23
298,473	10,38
298,732	12,78
298,992	16,53
299,251	16,31
299,51	11,78
299,769	11,4
300,028	11,54
300,287	11,97
300,547	11,78
300,806	8,89
301,065	12,36
301,324	14,35
301,583	8,91
301,842	4,94
302,101	3,02
302,36	4,32
302,619	3,97
302,878	3,89
303,137	1,98
303,396	5,15
303,655	6,98
303,914	3,5
304,173	4,48
304,432	3,2
304,691	7,73
304,95	6,18
305,208	10,25
305,467	10,56
305,726	10,83
305,985	11,34
306,244	12,45
306,503	12,8
306,761	11,22
307,02	8,04
307,279	8,74
307,537	10,95
307,796	8,01
308,055	5,46
308,314	6,86
308,572	4,14
308,831	6,7
309,09	6,59
309,348	7,82
309,607	7,17
309,865	11,26
310,124	12,52
310,382	14,1
310,641	13,93
310,9	12,25
311,158	14,44
311,417	13,02
311,675	13,32
311,933	14,55
312,192	15,47
312,45	16,21
312,709	15,8
312,967	16,36
313,226	16,12
313,484	15,5
313,742	13,98
314,001	12,38
314,259	10,7
314,517	11,66
314,776	13,34
315,034	16
315,292	13,86
315,55	12,28
315,809	12,76
316,067	14,16
316,325	12,17
316,583	13,86
316,841	12,08
317,1	9,74
317,358	5,57
317,616	5,27
317,874	4,71
318,132	3,56
318,39	4,23
318,648	4,35
318,906	3,42
319,164	1,71
319,422	0,55
319,68	-1,06
319,938	0,08
320,196	-0,08
320,454	1,42
320,712	1,1
320,97	1,1
321,228	-1,88
321,486	0,46
321,744	2,1
322,002	5,6
322,26	3,64
322,517	2,12
322,775	0,64
323,033	-0,39
323,291	1,37
323,549	2,11
323,806	2,54
324,064	2,93
324,322	4,7
324,58	4,32
324,837	6,08
325,095	5,19
325,353	6,83
325,61	8,26
325,868	7,65
326,126	9,78
326,383	8,49
326,641	7,77
326,898	10,55
327,156	10,17
327,413	10,82
327,671	11,48
327,928	12,01
328,186	13,64
328,443	10,99
328,701	13,46
328,958	14,95
329,216	16,03
329,473	13,98
329,731	13,86
329,988	12,78
330,245	15,81
330,503	16,62
330,76	17,13
331,017	18,74
331,275	15,34
331,532	15,8
331,789	13,91
332,047	13,15
332,304	10,31
332,561	10,9
332,818	11,59
333,076	14,45
333,333	14,54
333,59	15,41
333,847	16,83
334,104	15,37
334,361	14,58
334,618	13,93
334,876	10,73
335,133	11,8
335,39	9,59
335,647	10,21
335,904	7,15
336,161	4,08
336,418	5,71
336,675	2,3
336,932	4,33
337,189	4,7
337,446	5,89
337,703	6,39
337,96	1,55
338,216	2,01
338,473	-1,38
338,73	-2,27
338,987	-2,35
339,244	1,87
339,501	-0,47
339,757	1,17
340,014	2,42
340,271	3,78
340,528	5,04
340,785	7,51
341,041	5,9
341,298	4,01
341,555	3,14
341,811	1,9
342,068	0,12
342,325	0,73
342,581	3,9
342,838	5,81
343,094	5,26
343,351	4,43
343,608	1,5
343,864	3,69
344,121	4,53
344,377	3,17
344,634	3,08
344,89	1,02
345,147	-0,63
345,403	-3,02
345,66	-3,87
345,916	-1,41
346,172	-3,29
346,429	-3,31
346,685	-4,03
346,942	-3,19
347,198	-6,64
347,454	-5,65
347,711	-5,09
347,967	-8,59
348,223	-7,12
348,48	-7,99
348,736	-5,68
348,992	-5,58
349,248	-2,98
349,504	-3,14
349,761	-3,01
350,017	-2,84
350,273	-3,12
350,529	-5,11
350,785	-5,87
351,041	-7,15
351,297	-4,04
351,554	-4,81
351,81	-6,17
352,066	-7,64
352,322	-7,58
352,578	-7,23
352,834	-7,55
353,09	-7,55
353,346	-6,54
353,602	-7,62
353,858	-7,26
354,114	-7,59
354,369	-6,47
354,625	-4
354,881	-6,33
355,137	-4,45
355,393	-4,7
355,649	-3,45
355,905	-2,41
356,16	-3,97
356,416	-4,03
356,672	-11,17
356,928	-10,58
357,183	-12,2
357,439	-12,16
357,695	-13,27
357,951	-7,78
358,206	-8,89
358,462	-7,78
358,718	-8,6
358,973	-6,34
359,229	-6,2
359,484	-4,32
359,74	-2,24
359,996	-0,34
360,251	2,95
360,507	1,76
360,762	-0,04
361,018	3,47
361,273	0,91
361,529	2,31
361,784	-0,06
362,04	-0,24
362,295	-1,94
362,55	-1,54
362,806	1,13
363,061	2,12
363,316	3,54
363,572	3,6
363,827	4,15
364,082	2,64
364,338	2,83
364,593	3,05
364,848	3,72
365,104	2,51
365,359	6,13
365,614	6,3
365,869	2,25
366,124	4,06
366,38	2,45
366,635	3,89
366,89	4,87
367,145	4,24
367,4	8,11
367,655	8,52
367,91	8,17
368,165	6,33
368,42	4,13
368,675	6,83
368,93	6,42
369,185	5,78
369,44	6,39
369,695	10,4
369,95	10,25
370,205	9,6
370,46	7,43
370,715	6,02
370,97	7,01
371,225	6,92
371,48	8,05
371,734	8,77
371,989	8,47
372,244	8,67
372,499	10,19
372,754	8,79
373,008	7,11
373,263	2,36
373,518	5,66
373,773	4,36
374,027	2,16
374,282	4,11
374,537	4,27
374,791	5,68
375,046	4,55
375,301	2,51
375,555	0,72
375,81	2,45
376,064	3,36
376,319	7
376,573	5,11
376,828	2,75
377,082	6,89
377,337	4,8
377,591	1,34
377,846	2,32
378,1	6,53
378,355	8,02
378,609	6,09
378,863	2,23
379,118	3,38
379,372	0,21
379,627	-0,93
379,881	-0,89
380,135	-1,83
380,389	-0,64
380,644	0,41
380,898	1,84
381,152	2,69
381,407	1,2
381,661	3,73
381,915	4,84
382,169	5,22
382,423	3,68
382,677	-0,01
382,932	1,2
383,186	2,28
383,44	2,73
383,694	4,01
383,948	2,12
384,202	1,45
384,456	3,19
384,71	3,5
384,964	2,14
385,218	4,89
385,472	6,3
385,726	5,93
385,98	5,65
386,234	5,43
386,488	4,55
386,742	6,01
386,996	3,39
387,249	6,2
387,503	9,69
387,757	11,47
388,011	12,41
388,265	11,59
388,518	12,23
388,772	15,06
389,026	15,92
389,28	13,86
389,533	12,23
389,787	15,29
390,041	13,19
390,295	14,11
390,548	15,07
390,802	18,74
391,055	16,65
391,309	16,59
391,563	14,84
391,816	15,97
392,07	16,1
392,323	17,49
392,577	18,68
392,83	20,36
393,084	24,07
393,337	27,36
393,591	28,29
393,844	27,37
394,098	30,85
394,351	35,9
394,604	38,36
394,858	39,58
395,111	40,25
395,364	36,7
395,618	38,34
395,871	36,06
396,124	36,76
396,378	36,95
396,631	37,01
396,884	34,37
397,137	35,07
397,391	35,76
397,644	32,77
397,897	33,2
398,15	34,77
398,403	37,18
398,657	34,1
398,91	34,41
399,163	34,73
399,416	34,63
399,669	32,42
399,922	30,34
400,175	27,2
400,428	26,3
400,681	25,69
400,934	22,34
401,187	20,91
401,44	20,02
401,693	19,64
401,946	16,62
402,199	10,63
402,452	8,78
402,704	5,37
402,957	3,14
403,21	4,17
403,463	2,72
403,716	4,13
403,969	4,32
404,221	2,65
404,474	3,01
404,727	6,79
404,98	9,01
405,232	9,29
405,485	10,91
405,738	12,99
405,99	12,47
406,243	12,11
406,496	13,3
406,748	13,18
407,001	13,11
407,253	14,11
407,506	14,21
407,759	15,84
408,011	14
408,264	14,44
408,516	15
408,769	11,64
409,021	12,06
409,274	11,97
409,526	14,04
409,778	12,23
410,031	15,55
410,283	15,88
410,536	22,96
410,788	21,63
411,04	21,53
411,293	22,04
411,545	22,93
411,797	23,15
412,049	21,89
412,302	22,74
412,554	23,35
412,806	21,69
413,058	20,24
413,311	21,18
413,563	20,05
413,815	19,65
414,067	17,41
414,319	17,32
414,571	16,85
414,823	15,72
415,075	14,94
415,328	16,13
415,58	19,09
415,832	21,4
416,084	22,24
416,336	20,88
416,588	26,08
416,84	24,65
417,091	27,84
417,343	24,3
417,595	26,97
417,847	28,26
418,099	28,93
418,351	27,14
418,603	29,85
418,855	31,75
419,106	33,07
419,358	33,13
419,61	32,03
419,862	34,55
420,114	31,94
420,365	32,51
420,617	33,14
420,869	31,44
421,12	30,44
421,372	31,65
421,624	32,11
421,875	32,62
422,127	29,33
422,379	30,39
422,63	32,84
422,882	30,87
423,133	30,93
423,385	30,27
423,636	31,5
423,888	34,36
424,139	37,05
424,391	34,64
424,642	33,59
424,894	31,79
425,145	32,28
425,396	29,16
425,648	32,27
425,899	30,27
426,151	31,84
426,402	30,86
426,653	30,67
426,905	29,96
427,156	28,4
427,407	27,98
427,658	27,54
427,91	27
428,161	26,53
428,412	28,25
428,663	29,86
428,914	30,29
429,166	31,87
429,417	31,74
429,668	30,73
429,919	29,6
430,17	29,01
430,421	29,52
430,672	32,74
430,923	34,33
431,174	33,81
431,425	34,66
431,676	32,98
431,927	29,55
432,178	31,07
432,429	32,02
432,68	33,15
432,931	36,97
433,182	41,2
433,433	37,78
433,683	41,73
433,934	40,25
434,185	40,38
434,436	39,58
434,687	41,22
434,937	43,85
435,188	44,08
435,439	43,87
435,69	46,04
435,94	44,95
436,191	46,14
436,442	48,01
436,692	48,51
436,943	45,54
437,194	45,25
437,444	49,3
437,695	53,57
437,945	56,21
438,196	54,96
438,447	53,82
438,697	55,11
438,948	55,57
439,198	52,61
439,449	50,95
439,699	55,08
439,949	56,5
440,2	57,63
440,45	59,11
440,701	58,64
440,951	58,87
441,201	61,56
441,452	60,23
441,702	61,47
441,952	63,57
442,203	66,58
442,453	66,35
442,703	69,02
442,953	72,14
443,204	75,24
443,454	76,27
443,704	79,68
443,954	78,23
444,204	81,23
444,455	83,5
444,705	87,44
444,955	90,49
445,205	89,35
445,455	90,52
445,705	92,23
445,955	94,92
446,205	98
446,455	99,83
446,705	103,01
446,955	107,17
447,205	110,37
447,455	112,67
447,705	112,8
447,955	114,25
448,205	117,73
448,454	120,57
448,704	124,64
448,954	124,78
449,204	128,98
449,454	131,22
449,704	132,83
449,953	134,97
450,203	139,05
450,453	139,05
450,703	142,27
450,952	143,73
451,202	146,44
451,452	147,29
451,701	152,16
451,951	156,97
452,201	157,96
452,45	159,03
452,7	161,84
452,949	165,65
453,199	165,71
453,448	167,63
453,698	170,31
453,947	170,97
454,197	171,19
454,446	170,41
454,696	174,59
454,945	176,48
455,195	177,01
455,444	178,92
455,693	182,94
455,943	180,54
456,192	181,98
456,442	181,39
456,691	182,52
456,94	180,38
457,189	180,12
457,439	181,53
457,688	183,21
457,937	182,62
458,186	182,87
458,436	181,73
458,685	182,09
458,934	180,49
459,183	179,31
459,432	181,06
459,681	179,04
459,93	177,09
460,179	175,68
460,429	172,94
460,678	173,84
460,927	176,35
461,176	174,83
461,425	172,61
461,674	173,84
461,923	172,13
462,172	171,1
462,42	168,29
462,669	168,5
462,918	165,93
463,167	163,3
463,416	158,89
463,665	158,95
463,914	157,74
464,162	154,9
464,411	154,39
464,66	154,85
464,909	151,81
465,158	151,09
465,406	148,54
465,655	148,93
465,904	149,53
466,152	149,13
466,401	147,64
466,65	148,66
466,898	146,62
467,147	141,68
467,395	140,91
467,644	142,77
467,893	141,79
468,141	140,82
468,39	138,01
468,638	133,66
468,887	131,99
469,135	131,2
469,384	129,36
469,632	130,1
469,88	128,7
470,129	129,58
470,377	126,33
470,626	128,39
470,874	129,65
471,122	131,02
471,371	129,7
471,619	125,84
471,867	127,87
472,115	126,71
472,364	124,64
472,612	126,74
472,86	124,58
473,108	125,01
473,356	123,04
473,605	121,48
473,853	118,45
474,101	118,93
474,349	116,85
474,597	119,18
474,845	117,62
475,093	113,64
475,341	110,27
475,589	108,57
475,837	108,7
476,085	109,86
476,333	108,83
476,581	109,62
476,829	107,95
477,077	110,72
477,325	109,45
477,573	110,81
477,821	107,17
478,069	109,31
478,317	108,35
478,564	110,64
478,812	107,95
479,06	105,53
479,308	104,64
479,555	103,75
479,803	101,77
480,051	102,9
480,299	102,23
480,546	102,65
480,794	99,29
481,042	100,94
481,289	99,24
481,537	99,87
481,784	98,3
482,032	101,66
482,28	99,62
482,527	98,88
482,775	99,73
483,022	101,21
483,27	104,13
483,517	106,82
483,765	105,75
484,012	105,34
484,259	102,46
484,507	104,74
484,754	103,83
485,002	103,95
485,249	103,13
485,496	106,45
485,744	104,66
485,991	103,79
486,238	101,04
486,486	104,09
486,733	107,06
486,98	109,85
487,227	108,19
487,474	111,15
487,722	113,37
487,969	110,89
488,216	110,69
488,463	110,04
488,71	106,27
488,957	104,89
489,204	105,09
489,451	105,33
489,699	102,72
489,946	101,47
490,193	100,43
490,44	100,01
490,687	100,77
490,934	97,67
491,18	93,54
491,427	93,67
491,674	97,11
491,921	97,03
492,168	95,64
492,415	93,89
492,662	95,91
492,909	97,07
493,155	96,23
493,402	93,66
493,649	91,06
493,896	91,88
494,142	88,41
494,389	86,54
494,636	86,29
494,883	85,86
495,129	83,65
495,376	80,63
495,623	82,65
495,869	84,71
496,116	87,07
496,362	89,52
496,609	94,06
496,855	98,59
497,102	97,44
497,348	98,43
497,595	98,36
497,841	102,98
498,088	102,02
498,334	100,44
498,581	99,12
498,827	100,37
499,074	100,88
499,32	101,78
499,566	106,27
499,813	106,51
500,059	103,26
500,305	101,51
500,552	100,35
500,798	98,76
501,044	102,65
501,29	101,78
501,537	99,46
501,783	101,59
502,029	104,32
502,275	100,09
502,521	98,34
502,767	98,03
503,013	102,15
503,26	99,78
503,506	94,76
503,752	94,45
503,998	92,53
504,244	91,5
504,49	88,13
504,736	89,5
504,982	87,09
505,228	89,9
505,474	89,85
505,72	92,01
505,966	91,08
506,211	94,88
506,457	95,7
506,703	92,41
506,949	91,16
507,195	88,17
507,441	85,29
507,686	88,56
507,932	88,22
508,178	89,48
508,424	88,55
508,669	85,87
508,915	86,99
509,161	87,97
509,406	89,14
509,652	87,42
509,898	91,6
510,143	92,85
510,389	92,15
510,634	86,94
510,88	89,94
511,125	93,21
511,371	93,99
511,616	95,18
511,862	92,29
512,107	89,86
512,353	90,95
512,598	91,02
512,844	88,09
513,089	84,49
513,335	83,93
513,58	84,83
513,825	83,82
514,071	81,51
514,316	81,35
514,561	82,03
514,806	81,33
515,052	83,78
515,297	82,89
515,542	83,82
515,787	84,96
516,033	85,81
516,278	87,28
516,523	87,35
516,768	86,48
517,013	82,76
517,258	81,73
517,503	81,58
517,748	81,61
517,993	81,01
518,238	81,65
518,483	79,72
518,728	77,32
518,973	75,56
519,218	75,69
519,463	76,93
519,708	76,47
519,953	73,97
520,198	75,49
520,443	77,57
520,688	80,62
520,933	80,83
521,177	79,63
521,422	78,23
521,667	80,4
521,912	80,47
522,157	75,9
522,401	78,36
522,646	78,4
522,891	78,98
523,135	79,5
523,38	79,19
523,625	78,03
523,869	80,18
524,114	81,02
524,358	80,63
524,603	81,27
524,848	80,13
525,092	79,31
525,337	79,75
525,581	81,86
525,826	84,56
526,07	85,14
526,315	87,53
526,559	86,98
526,803	83,17
527,048	85,67
527,292	86,97
527,537	87,78
527,781	86,03
528,025	84,03
528,269	84,57
528,514	84,57
528,758	83,69
529,002	84,16
529,247	87,18
529,491	86,6
529,735	90,97
529,979	90,05
530,223	90,62
530,467	87,4
530,712	85,46
530,956	83,48
531,2	85,13
531,444	80,97
531,688	82,16
531,932	82,34
532,176	82,75
532,42	83,34
532,664	83,01
532,908	81,75
533,152	79,15
533,396	76,83
533,64	75,22
533,884	72,5
534,128	71,68
534,371	73,96
534,615	76,7
534,859	74,04
535,103	72,19
535,347	72,14
535,59	72,8
535,834	69,02
536,078	69,18
536,322	71,6
536,565	73,5
536,809	70,27
537,053	73,03
537,296	69,85
537,54	68,94
537,784	66,81
538,027	68,87
538,271	67,62
538,514	65,98
538,758	62,87
539,001	62,06
539,245	60,69
539,488	60,49
539,732	62,73
539,975	63,1
540,219	65,12
540,462	65,55
540,706	68,69
540,949	67,1
541,192	68,01
541,436	74,3
541,679	77,96
541,922	79,5
542,166	73,26
542,409	74,84
542,652	74,85
542,895	75,68
543,139	75,97
543,382	80,49
543,625	80,69
543,868	80,41
544,111	79,01
544,354	78,9
544,598	76,75
544,841	78,58
545,084	78,51
545,327	78,93
545,57	79,52
545,813	81,71
546,056	82,57
546,299	85,63
546,542	87,36
546,785	89,64
547,028	90,14
547,271	88,15
547,514	88,16
547,756	85,34
547,999	84,87
548,242	84,19
548,485	83,56
548,728	84,41
548,971	78,67
549,213	78,56
549,456	77,5
549,699	77,67
549,942	77,35
550,184	77,53
550,427	77,28
550,67	77,42
550,912	72,58
551,155	72,39
551,398	72,28
551,64	71,28
551,883	70,32
552,125	68,58
552,368	68,32
552,61	65,59
552,853	67,37
553,095	66,43
553,338	65,27
553,58	66,2
553,823	64,64
554,065	67,46
554,308	63,34
554,55	61,38
554,792	60,61
555,035	59,92
555,277	59,1
555,519	60,19
555,762	58,09
556,004	59,27
556,246	56,29
556,488	57,48
556,731	53,98
556,973	54,36
557,215	53,83
557,457	54,83
557,699	57,45
557,941	55,42
558,183	55,12
558,426	59,59
558,668	57,2
558,91	56,72
559,152	56,35
559,394	57,36
559,636	59,31
559,878	60,94
560,12	60,24
560,362	61,47
560,604	60,28
560,845	60,74
561,087	59,71
561,329	62,55
561,571	59,45
561,813	61,11
562,055	60,45
562,297	59,59
562,538	59,9
562,78	62,46
563,022	60
563,264	60,94
563,505	60,81
563,747	61
563,989	59,25
564,23	59,92
564,472	59,04
564,714	61,17
564,955	61,03
565,197	57,71
565,438	58,01
565,68	61,3
565,921	57,2
566,163	57,43
566,404	57,03
566,646	60,41
566,887	60,8
567,129	61,6
567,37	59,98
567,612	63,14
567,853	61,11
568,094	63,32
568,336	63,16
568,577	63,41
568,818	62,78
569,06	60,73
569,301	58,88
569,542	58,47
569,783	61,3
570,025	61,68
570,266	63,04
570,507	64,46
570,748	64,9
570,989	65,27
571,23	67,39
571,472	67,39
571,713	67,45
571,954	66,82
572,195	66,11
572,436	68,23
572,677	71,91
572,918	75,18
573,159	72,76
573,4	71,63
573,641	71,25
573,882	71,1
574,123	68,77
574,364	64,66
574,604	66,23
574,845	63,94
575,086	64,26
575,327	63,88
575,568	61,07
575,809	59,67
576,049	58,75
576,29	57,23
576,531	63,17
576,771	66,36
577,012	68,99
577,253	69,83
577,494	69,67
577,734	67,92
577,975	68,92
578,215	69,02
578,456	67,82
578,697	68,59
578,937	70,88
579,178	70,11
579,418	70,54
579,659	70,26
579,899	66,52
580,14	64,88
580,38	63,61
580,62	62,93
580,861	66,75
581,101	67,08
581,342	67,12
581,582	62,74
581,822	65,6
582,063	64,29
582,303	65,83
582,543	65,03
582,783	66,3
583,024	71,55
583,264	74,85
583,504	72,94
583,744	73,58
583,984	69,29
584,224	69,53
584,465	68,29
584,705	67,16
584,945	68,25
585,185	67,74
585,425	68,58
585,665	67,26
585,905	67,31
586,145	66,65
586,385	65,38
586,625	67,54
586,865	67,19
587,105	66,44
587,345	67,56
587,585	68,14
587,824	65,53
588,064	65,29
588,304	62,73
588,544	63,47
588,784	61,4
589,024	65,41
589,263	65,23
589,503	64,77
589,743	67,86
589,982	67,46
590,222	68,26
590,462	64,36
590,701	62,29
590,941	65,69
591,181	64,3
591,42	64
591,66	65,97
591,899	69,29
592,139	69,04
592,378	68,41
592,618	68,32
592,857	68,18
593,097	69,95
593,336	70,32
593,576	70,19
593,815	70,58
594,055	70,81
594,294	70,74
594,533	70,1
594,773	69,48
595,012	70,14
595,251	71,52
595,491	73,91
595,73	76,63
595,969	78,3
596,208	80,32
596,447	84,15
596,687	84,87
596,926	84,74
597,165	80,17
597,404	82,28
597,643	80,68
597,882	78,47
598,121	79,2
598,36	80,24
598,599	82,46
598,838	81,89
599,077	77,56
599,316	77,23
599,555	76,71
599,794	76,69
600,033	77,74
600,272	77,43
600,511	75,06
600,75	76,05
600,989	77,09
601,228	76,43
601,466	75,3
601,705	75,23
601,944	76,7
602,183	80,71
602,422	79,86
602,66	79,51
602,899	78,02
603,138	78,06
603,376	76,82
603,615	76,62
603,854	73,55
604,092	73,62
604,331	75,88
604,569	78,56
604,808	77,82
605,047	79,64
605,285	81,11
605,524	80,87
605,762	78,74
606	78,28
606,239	81,19
606,477	81,83
606,716	78,94
606,954	78,3
607,193	76,82
607,431	72,73
607,669	71,81
607,908	71,57
608,146	73,11
608,384	71,31
608,622	71,52
608,861	72,63
609,099	71,74
609,337	68,94
609,575	66,05
609,813	67,7
610,052	67,84
610,29	65,02
610,528	62,46
610,766	60,41
611,004	60,57
611,242	60,01
611,48	59,47
611,718	56,41
611,956	55,58
612,194	54,56
612,432	52,98
612,67	52,53
612,908	54,06
613,146	52,03
613,384	53,18
613,621	51,24
613,859	51,66
614,097	51,62
614,335	51,79
614,573	53,09
614,811	56,83
615,048	56,05
615,286	56,65
615,524	56,07
615,761	52,81
615,999	52,85
616,237	52,07
616,474	54,9
616,712	58,52
616,95	58,26
617,187	55,19
617,425	56,95
617,662	58,79
617,9	57,42
618,137	57,46
618,375	55,87
618,612	54,74
618,85	57,1
619,087	59,92
619,325	60,49
619,562	58,37
619,799	56,72
620,037	56,3
620,274	54,62
620,511	56,91
620,749	53,05
620,986	51,78
621,223	48,75
621,461	47,94
621,698	48,53
621,935	48,36
622,172	44,62
622,409	45,89
622,647	46,02
622,884	42,3
623,121	45,73
623,358	43,22
623,595	41,3
623,832	41,07
624,069	38,77
624,306	39,29
624,543	41,52
624,78	41,42
625,017	40,6
625,254	43,45
625,491	44,63
625,728	47,12
625,965	47,79
626,202	45,86
626,438	43,64
626,675	41,3
626,912	42,68
627,149	44,22
627,386	44,07
627,622	42,74
627,859	41,58
628,096	42,52
628,333	42,76
628,569	44,29
628,806	44,98
629,043	44,09
629,279	45,13
629,516	48,22
629,752	44,81
629,989	45,04
630,225	45,13
630,462	46,45
630,699	47,36
630,935	48,22
631,171	43,86
631,408	43,78
631,644	40,85
631,881	38,75
632,117	37,59
632,354	38,99
632,59	37,38
632,826	36,92
633,063	35,98
633,299	37,3
633,535	34,67
633,771	33,88
634,008	37,11
634,244	36,8
634,48	34,98
634,716	36,68
634,953	36,26
635,189	38,02
635,425	39,74
635,661	43,01
635,897	42,22
636,133	43,16
636,369	42,83
636,605	37,28
636,841	36,13
637,077	38,69
637,313	38,24
637,549	37,61
637,785	35,34
638,021	37,32
638,257	35,77
638,493	39,63
638,729	38,38
638,965	44,59
639,2	46,26
639,436	44,6
639,672	43,83
639,908	41,75
640,144	46,26
640,379	48,11
640,615	44,6
640,851	47,75
641,086	49,01
641,322	46,92
641,558	48,59
641,793	49,5
642,029	46,07
642,264	44,65
642,5	43,65
642,736	39,66
642,971	39,13
643,207	37,1
643,442	34,24
643,678	34,79
643,913	37,77
644,148	37,62
644,384	39,34
644,619	39,17
644,855	42,54
645,09	43,54
645,325	42,67
645,561	43,29
645,796	40,35
646,031	43,44
646,266	39,31
646,502	37,64
646,737	39,98
646,972	39,66
647,207	40,72
647,442	36,17
647,678	33,02
647,913	36,12
648,148	34,9
648,383	33,46
648,618	32,53
648,853	31,65
649,088	33,55
649,323	38,58
649,558	39,42
649,793	38,56
650,028	39,67
650,263	35,98
650,498	39,71
650,733	40,81
650,968	39,98
651,202	42,03
651,437	40,68
651,672	37,24
651,907	37,04
652,142	36,45
652,376	37,52
652,611	39,89
652,846	41,88
653,081	43,01
653,315	41,14
653,55	41,74
653,785	40,85
654,019	41,68
654,254	40,61
654,488	42,04
654,723	38,78
654,958	36,55
655,192	34,29
655,427	31,9
655,661	33,5
655,896	36,42
656,13	38,71
656,364	37,03
656,599	32,34
656,833	35,83
657,068	38,02
657,302	38,5
657,536	37,83
657,771	37,82
658,005	38,27
658,239	39,02
658,474	35,01
658,708	35,66
658,942	37,17
659,176	35,83
659,41	33,23
659,645	32,76
659,879	30,77
660,113	26,53
660,347	24,97
660,581	24,11
660,815	23,15
661,049	22,5
661,283	19,66
661,517	18,03
661,751	17,37
661,985	18,21
662,219	20,87
662,453	19,71
662,687	22,58
662,921	20,38
663,155	19,4
663,389	13,72
663,622	10,07
663,856	13,15
664,09	10,47
664,324	10,9
664,558	11,3
664,791	10,61
665,025	10,26
665,259	10,02
665,492	9,56
665,726	14,38
665,96	15,22
666,193	13,76
666,427	15,17
666,661	13,85
666,894	10,83
667,128	9,45
667,361	12,22
667,595	12,44
667,828	11,21
668,062	11,3
668,295	11,62
668,529	11,97
668,762	12,99
668,995	11,44
669,229	15,53
669,462	16,39
669,695	17,62
669,929	16,46
670,162	16,36
670,395	14,65
670,629	15,46
670,862	18,15
671,095	14,38
671,328	14,39
671,561	10,38
671,795	11,82
672,028	14,14
672,261	13,73
672,494	14,69
672,727	13,42
672,96	13,92
673,193	11,89
673,426	16,13
673,659	16,23
673,892	17,9
674,125	18,05
674,358	18,05
674,591	16,76
674,824	16,07
675,057	15,87
675,29	13,74
675,523	15,34
675,755	14,09
675,988	14,25
676,221	17,72
676,454	15,47
676,687	16,3
676,919	15,22
677,152	13,64
677,385	13,13
677,617	14,47
677,85	17,06
678,083	16,9
678,315	19,1
678,548	16,97
678,78	17,29
679,013	15,53
679,246	16,28
679,478	18,12
679,711	17,11
679,943	17,86
680,175	13,87
680,408	19,11
680,64	14,23
680,873	14,73
681,105	15,37
681,338	19,01
681,57	18,35
681,802	18,99
682,034	19,82
682,267	23,24
682,499	24,19
682,731	22,02
682,964	22,13
683,196	20,35
683,428	17,27
683,66	16,74
683,892	19,91
684,124	23,55
684,356	26,73
684,589	26,6
684,821	24,96
685,053	23,87
685,285	24,38
685,517	26,19
685,749	27,38
685,981	28
686,213	29,4
686,445	28,34
686,676	24,75
686,908	25,31
687,14	25,27
687,372	26,42
687,604	21,17
687,836	23,53
688,068	23,24
688,299	22,82
688,531	19,78
688,763	24,33
688,995	23,47
689,226	26,33
689,458	24,23
689,69	24,2
689,921	23,33
690,153	23,23
690,384	24,74
690,616	24,77
690,848	25,52
691,079	22,19
691,311	19,19
691,542	17,12
691,774	15,73
692,005	17,69
692,237	20,71
692,468	18,82
692,699	17,9
692,931	17,58
693,162	15,34
693,393	15,11
693,625	14,01
693,856	16,02
694,087	16,44
694,319	18,59
694,55	18,52
694,781	18,79
695,012	18,05
695,243	15,46
695,475	15,52
695,706	15,93
695,937	14,96
696,168	14,18
696,399	12,65
696,63	12,78
696,861	12,95
697,092	18,36
697,323	21,73
697,554	23,55
697,785	24,28
698,016	25,76
698,247	23,23
698,478	24,82
698,709	26,12
698,94	29,66
699,171	29,12
699,401	25,39
699,632	27,89
699,863	24,98
700,094	25,31
700,325	29,77
700,555	30,15
700,786	32,41
701,017	31,46
701,247	30,08
701,478	28,37
701,709	27,61
701,939	26,28
702,17	28,49
702,401	33,05
702,631	33,4
702,862	33,32
703,092	30,36
703,323	32,98
703,553	34,56
703,784	34,77
704,014	34,34
704,244	29,6
704,475	28,48
704,705	28,5
704,936	27,49
705,166	25,73
705,396	26,97
705,627	26,86
705,857	27,43
706,087	27,68
706,317	25,74
706,548	23,46
706,778	21,98
707,008	22,9
707,238	24,4
707,468	20,95
707,698	18,66
707,928	17,92
708,158	17,34
708,389	16,66
708,619	16,68
708,849	17,05
709,079	18,78
709,309	15,25
709,539	11,28
709,768	12,1
709,998	14,68
710,228	13,41
710,458	12,81
710,688	9,86
710,918	10,85
711,148	10,48
711,378	10,48
711,607	8,36
711,837	8,03
712,067	9,1
712,297	8,36
712,526	8,63
712,756	9,67
712,986	6,56
713,215	3,6
713,445	5,03
713,674	6,9
713,904	6,74
714,134	9,12
714,363	8,16
714,593	7,5
714,822	7,15
715,052	5,56
715,281	6,93
715,511	6,02
715,74	4,19
715,969	2,25
716,199	1,21
716,428	2,65
716,657	3,44
716,887	4,16
717,116	0,39
717,345	2,21
717,575	2,15
717,804	1,66
718,033	-1,2
718,262	-1,61
718,492	0,06
718,721	0,98
718,95	1,28
719,179	-1,46
719,408	-1,89
719,637	-4,61
719,866	-7,27
720,095	-6,1
720,324	-7,49
720,553	-10,65
720,782	-12,89
721,011	-13,34
721,24	-15,94
721,469	-16,79
721,698	-15,91
721,927	-15,65
722,156	-16,22
722,385	-17,05
722,613	-12,7
722,842	-11,15
723,071	-7,16
723,3	-5,34
723,529	-6,81
723,757	-7,25
723,986	-10,18
724,215	-10,44
724,443	-8,93
724,672	-6,63
724,901	-5,23
725,129	-2,64
725,358	-0,5
725,586	-4,05
725,815	-4,69
726,043	-6,64
726,272	-7,52
726,5	-7
726,729	-6,23
726,957	-10,13
727,186	-10,77
727,414	-8,14
727,642	-6,52
727,871	-3,96
728,099	-4,81
728,327	-4,2
728,556	-1,83
728,784	0,17
729,012	-1,57
729,241	1,68
729,469	0,48
729,697	-2,86
729,925	-2,16
730,153	-3,94
730,381	-3,87
730,61	-3,41
730,838	-6,1
731,066	-4,09
731,294	-3,01
731,522	-7,2
731,75	-10,9
731,978	-12,07
732,206	-13,03
732,434	-13,66
732,662	-11,22
732,89	-12,67
733,118	-13,49
733,346	-12,77
733,573	-11,76
733,801	-12,2
734,029	-3,5
734,257	-3,08
734,485	-1,17
734,712	0,87
734,94	-1,26
735,168	3,07
735,396	3,24
735,623	-0,03
735,851	-0,3
736,078	2,5
736,306	2,19
736,534	2,73
736,761	3,66
736,989	0,03
737,216	-0,75
737,444	-2,72
737,671	-2,1
737,899	4,82
738,126	2,57
738,354	2,07
738,581	4,7
738,809	5,64
739,036	3,46
739,263	4,02
739,491	1,09
739,718	0,25
739,945	5,2
740,173	7,29
740,4	7,2
740,627	6,33
740,854	6,92
741,081	3,25
741,309	2,24
741,536	-0,08
741,763	-0,98
741,99	1,39
742,217	0,72
742,444	1,03
742,671	4,48
742,898	3,47
743,125	1,15
743,352	-2,38
743,579	-2,74
743,806	-2,79
744,033	0,73
744,26	1,44
744,487	0,58
744,714	0,22
744,941	-0,63
745,167	3,37
745,394	2,23
745,621	1,89
745,848	1,75
746,075	5,21
746,301	7,35
746,528	12,31
746,755	11,19
746,981	10,23
747,208	11,87
747,435	14,29
747,661	14,25
747,888	15,93
748,114	12,69
748,341	14,67
748,567	15,59
748,794	13,54
749,02	11,18
749,247	7,89
749,473	6,4
749,7	5,15
749,926	4,54
750,152	7,48
750,379	9,65
750,605	9,87
750,831	8,62
751,058	7,72
751,284	6,03
751,51	8,7
751,737	10,39
751,963	7,11
752,189	5,17
752,415	5,06
752,641	4,11
752,867	3,96
753,094	0,9
753,32	-0,35
753,546	-1,34
753,772	1,42
753,998	-0,51
754,224	-1,16
754,45	-1,43
754,676	-1,91
754,902	-3,5
755,128	-2,84
755,354	-3,23
755,579	-2,63
755,805	-1,87
756,031	-1,01
756,257	-1,9
756,483	-1,89
756,709	-4,44
756,934	-4,37
757,16	-7,03
757,386	-7,49
757,612	-10,29
757,837	-11,14
758,063	-9,14
758,289	-5,97
758,514	-7,64
758,74	-11,14
758,965	-11,06
759,191	-9,73
759,416	-8,24
759,642	-7,07
759,868	-6,44
760,093	-3,82
760,318	-5,88
760,544	-7,28
760,769	-8,49
760,995	-8,8
761,22	-9,82
761,445	-8,75
761,671	-7,04
761,896	-4,2
762,121	-3,55
762,347	-5,35
762,572	-8,66
762,797	-8,24
763,022	-8,92
763,248	-2,75
763,473	-1,89
763,698	-1,73
763,923	-0,91
764,148	0,77
764,373	-0,18
764,598	2,94
764,823	4,89
765,048	2,05
765,273	-1,8
765,498	-3,39
765,723	-2,27
765,948	-3,15
766,173	-4,26
766,398	-3,08
766,623	-5,6
766,848	-6,34
767,073	-7,2
767,298	-5,95
767,522	-5,2
767,747	-5,79
767,972	-5,25
768,197	-4,14
768,421	-4,62
768,646	-8,29
768,871	-11,21
769,095	-10,62
769,32	-7,43
769,545	-6,4
769,769	-5,77
769,994	-3,42
770,218	-8,19
770,443	-8,08
770,667	-7,04
770,892	-7,63
771,116	-9,92
771,341	-7,85
771,565	-8,38
771,79	-7,31
772,014	-6,92
772,238	-7,36
772,463	-4,23
772,687	-3,94
772,911	-3,72
773,136	-6,2
773,36	-6,1
773,584	-3,46
773,808	-5,95
774,033	-5,94
774,257	-6,55
774,481	-8,15
774,705	-8,54
774,929	-9,27
775,153	-9,71
775,377	-9,58
775,602	-8,64
775,826	-7,47
776,05	-4,64
776,274	-6
776,498	-6,86
776,722	-7,4
776,945	-6,76
777,169	-5,33
777,393	-6,1
777,617	-6,67
777,841	-5,15
778,065	-3,6
778,289	-4,62
778,512	-5,58
778,736	-6,71
778,96	-8,4
779,184	-6,33
779,407	-7,87
779,631	-6,75
779,855	-7,23
780,078	-6,52
780,302	-7,52
780,526	-9,81
780,749	-8,59
780,973	-7,19
781,196	-7,6
781,42	-8,75
781,643	-6,85
781,867	-5,03
782,09	-7,67
782,314	-7,73
782,537	-7,52
782,76	-7,07
782,984	-5,79
783,207	-6,93
783,431	-5,24
783,654	-6,33
783,877	-8,6
784,1	-10,89
784,324	-10,65
784,547	-10,54
784,77	-13,65
784,993	-14,43
785,216	-14,8
785,44	-15,19
785,663	-16,25
785,886	-12,14
786,109	-12,83
786,332	-12,54
786,555	-12,28
786,778	-10,56
787,001	-8,99
787,224	-8,52
787,447	-7,18
787,67	-5,9
787,893	-6,2
788,116	-5,64
788,339	-3,75
788,561	-6,52
788,784	-10,95
789,007	-12,17
789,23	-13,69
789,453	-13,84
789,675	-16,74
789,898	-21,04
790,121	-22,93
790,344	-24,74
790,566	-21,73
790,789	-20,99
791,012	-20,04
791,234	-16,83
791,457	-13,4
791,679	-13,01
791,902	-13,62
792,124	-14,94
792,347	-14,96
792,569	-15,82
792,792	-20,08
793,014	-15,77
793,237	-12,98
793,459	-13,23
793,681	-12,44
793,904	-14,23
794,126	-15,34
794,348	-15,64
794,571	-15,03
794,793	-16,06
795,015	-14,86
795,237	-15,74
795,46	-13,55
795,682	-12,17
795,904	-8,97
796,126	-9,76
796,348	-9,07
796,57	-5,16
796,792	-3,11
797,014	0,91
797,237	4,89
797,459	5,34
797,681	6,46
797,903	4,71
798,124	3,5
798,346	15,5
798,568	18,45
798,79	23,9
799,012	25,81
799,234	27,78
799,456	30,05
799,678	32,67
799,899	28,62
800,121	25,03
800,343	24,17
800,565	24,09
800,786	24,82
801,008	26,68
801,23	27,7
801,451	29,17
801,673	26,95
801,895	26,53
802,116	28,73
802,338	30,24
802,559	31,17
802,781	30,28
803,002	32,24
803,224	34,5
803,445	31,63
803,667	32,43
803,888	30,33
804,109	29,33
804,331	28,57
804,552	27,83
804,773	29,44
804,995	27,19
805,216	11,8
805,437	8,6
805,658	4,27
805,88	2,76
806,101	2,91
806,322	1,84
806,543	0,4
806,764	-1,29
806,985	0,76
807,207	1,83
807,428	2,11
807,649	-0,61
807,87	-2,17
808,091	-2,32
808,312	-2,93
808,533	2,68
808,754	4,25
808,975	1,65
809,195	2,54
809,416	2,39
809,637	1,45
809,858	0,07
810,079	-3,75
810,3	-1,66
810,52	-3,13
810,741	-4,54
810,962	-6,07
811,183	-7,8
811,403	-7,34
811,624	-7,93
811,845	-5,9
812,065	-4,82
812,286	-3,41
812,506	-3,27
812,727	-3,01
812,948	-3,44
813,168	-1,1
813,389	-3,53
813,609	-1,88
813,83	-4,1
814,05	-6,44
814,27	-8,11
814,491	-3,6
814,711	-4,62
814,931	-7,21
815,152	-7,42
815,372	-10,17
815,592	-11,32
815,813	-12,21
816,033	-13,7
816,253	-11,87
816,473	-12,65
816,694	-11,39
816,914	-9,21
817,134	-9,62
817,354	-10,85
817,574	-10
817,794	-9,06
818,014	-9,8
818,234	-10,4
818,454	-10,54
818,674	-14,38
818,894	-17,16
819,114	-14,36
819,334	-13,43
819,554	-10,96
819,774	-7,69
819,994	-11,04
820,214	-9,95
820,433	-7,93
820,653	-6,97
820,873	-4,18
821,093	-2,18
821,312	-3,92
821,532	-1,35
821,752	1,03
821,972	-1,39
822,191	0,25
822,411	-1,79
822,63	-0,01
822,85	-0,27
823,07	-3,65
823,289	-2,81
823,509	-5,07
823,728	-3,27
823,948	-6,02
824,167	-6,81
824,387	-7,29
824,606	-5,82
824,825	-6,4
825,045	-6,36
825,264	-6,84
825,483	-3,92
825,703	-2,31
825,922	-5,04
826,141	-6,44
826,361	-7,74
826,58	-11,78
826,799	-11,83
827,018	-10,39
827,237	-12,63
827,456	-12,13
827,676	-12,83
827,895	-13,16
828,114	-12,17
828,333	-13,02
828,552	-13,46
828,771	-11,76
828,99	-15,43
829,209	-14,53
829,428	-11,98
829,647	-11,95
829,866	-10,1
830,084	-10,39
830,303	-9,5
830,522	-11,39
830,741	-9,97
830,96	-8,66
831,179	-8,15
831,397	-11,21
831,616	-10,53
831,835	-12,53
832,053	-10,92
832,272	-10,37
832,491	-8,23
832,709	-9,18
832,928	-9,44
833,147	-8,36
833,365	-7,68
833,584	-4,98
833,802	-2,65
834,021	-2,91
834,239	-2,19
834,458	-4,92
834,676	-8,44
834,894	-9,57
835,113	-10,78
835,331	-11,49
835,55	-12,08
835,768	-9,55
835,986	-9,26
836,204	-11,84
836,423	-11,36
836,641	-12,83
836,859	-14,82
837,077	-13,95
837,296	-13,47
837,514	-14,77
837,732	-16,06
837,95	-16,67
838,168	-14,03
838,386	-16,29
838,604	-12,62
838,822	-14,17
839,04	-15,61
839,258	-16,41
839,476	-14,81
839,694	-14,21
839,912	-15,51
840,13	-14,35
840,348	-11,95
840,566	-16,44
840,783	-14,36
841,001	-15,21
841,219	-11,77
841,437	-10,06
841,655	-9,37
841,872	-9,28
842,09	-9,25
842,308	-7,48
842,525	-6,74
842,743	-5,13
842,961	-5,84
843,178	-7,66
843,396	-4,08
843,613	0,2
843,831	0,28
844,048	0,12
844,266	0,31
844,483	-0,43
844,701	-1,04
844,918	-2,44
845,136	-1,59
845,353	-3,57
845,57	-1,75
845,788	0,46
846,005	-2,32
846,222	-4,52
846,439	-2,96
846,657	-3,46
846,874	-4,31
847,091	-7,71
847,308	-4,82
847,526	-5,19
847,743	-5,58
847,96	-7,48
848,177	-6,86
848,394	-7,22
848,611	-7,9
848,828	-7,9
849,045	-8,53
849,262	-9,12
849,479	-8,56
849,696	-8,88
849,913	-9,86
850,13	-13,99
850,347	-14,13
850,564	-14,52
850,78	-16,57
850,997	-18,24
851,214	-16,51
851,431	-16,19
851,647	-17,75
851,864	-16,65
852,081	-14,75
852,298	-17,01
852,514	-17,89
852,731	-15,13
852,948	-11,63
853,164	-10,09
853,381	-9,71
853,597	-11,36
853,814	-11,81
854,03	-14,82
854,247	-13,71
854,463	-12,68
854,68	-13,51
854,896	-13,04
855,113	-13,1
855,329	-11,31
855,545	-9,46
855,762	-11,27
855,978	-14,39
856,194	-17,46
856,411	-14,87
856,627	-12,84
856,843	-11,8
857,059	-9,14
857,275	-10,1
857,492	-8,9
857,708	-4,67
857,924	-4,33
858,14	-1,06
858,356	-1,78
858,572	-1,71
858,788	-3,61
859,004	-2,38
859,22	-4,53
859,436	-4,64
859,652	-4,98
859,868	-8,1
860,084	-8,9
860,3	-8,96
860,516	-9,4
860,731	-9,32
860,947	-11,78
861,163	-10,93
861,379	-9,37
861,595	-9,34
861,81	-9,52
862,026	-8,88
862,242	-8,69
862,457	-8,71
862,673	-7,63
862,889	-7,69
863,104	-9,63
863,32	-9,06
863,535	-8,04
863,751	-12,47
863,966	-10,65
864,182	-8,21
864,397	-10,15
864,613	-11,72
864,828	-14,28
865,044	-12,4
865,259	-11,13
865,474	-10,78
865,69	-8,73
865,905	-7,03
866,12	-9,5
866,336	-11,74
866,551	-10,53
866,766	-10,52
866,981	-11,27
867,196	-11,2
867,412	-9,86
867,627	-9,8
867,842	-11,63
868,057	-11,45
868,272	-11,51
868,487	-10,9
868,702	-13,66
868,917	-15,57
869,132	-13,76
869,347	-12,46
869,562	-12,76
869,777	-12,14
869,992	-13,55
870,207	-13,95
870,422	-14,53
870,636	-14,2
870,851	-16,21
871,066	-17,73
871,281	-16,79
871,495	-17,14
871,71	-14,66
871,925	-16,13
872,14	-17,78
872,354	-22,08
872,569	-23,54
872,783	-20,29
872,998	-19,6
873,213	-19,98
873,427	-16,67
873,642	-14,77
873,856	-14,4
874,071	-14,99
874,285	-15,45
874,5	-16,13
874,714	-18,26
874,928	-18,59
875,143	-19,17
875,357	-18,97
875,571	-19,05
875,786	-18,64
876	-16,45
876,214	-14,22
876,429	-16,22
876,643	-15,98
876,857	-14,64
877,071	-12,87
877,285	-15,14
877,499	-17,2
877,714	-13,62
877,928	-13,12
878,142	-14,87
878,356	-18,82
878,57	-17,89
878,784	-16,14
878,998	-15,53
879,212	-12,79
879,426	-15,67
879,639	-14,32
879,853	-15,38
880,067	-16,68
880,281	-17,77
880,495	-14,99
880,709	-10,92
880,922	-9,14
881,136	-6,29
881,35	-3,42
881,564	-4,05
881,777	-5,9
881,991	-4,29
882,205	-1,97
882,418	-3,35
882,632	-5,96
882,845	-7,34
883,059	-5,42
883,273	-6,69
883,486	-8,82
883,7	-7,47
883,913	-8,46
884,126	-7,79
884,34	-11,36
884,553	-13,05
884,767	-10,16
884,98	-8,93
885,193	-9,99
885,407	-11,22
885,62	-8,87
885,833	-9,43
886,046	-6,96
886,26	-9,26
886,473	-9,89
886,686	-10,5
886,899	-9,98
887,112	-12,99
887,326	-16,81
887,539	-18,07
887,752	-18,08
887,965	-22,06
888,178	-21,1
888,391	-20,93
888,604	-21,67
888,817	-22,96
889,03	-20,97
889,243	-22,15
889,455	-24,7
889,668	-24,08
889,881	-20,35
890,094	-20,85
890,307	-22,7
890,52	-19,3
890,732	-18,87
890,945	-19,27
891,158	-19,83
891,37	-21,17
891,583	-19,94
891,796	-18,95
892,008	-20,15
892,221	-21,42
892,434	-24,32
892,646	-25,29
892,859	-25,15
893,071	-23,71
893,284	-22,74
893,496	-21,95
893,709	-21,7
893,921	-19,55
894,133	-20,18
894,346	-21,04
894,558	-19,64
894,771	-20,07
894,983	-16,68
895,195	-15,21
895,407	-15,28
895,62	-18,28
895,832	-17,24
896,044	-13,99
896,256	-15,5
896,468	-17,82
896,681	-15,27
896,893	-15,27
897,105	-16,01
897,317	-15,62
897,529	-12,75
897,741	-11,04
897,953	-7,11
898,165	-8,9
898,377	-10,18
898,589	-7,55
898,801	-8,11
899,013	-5,24
899,224	-2,6
899,436	-0,18
899,648	-1,13
899,86	-2,24
900,072	0,09
900,283	1,08
900,495	1,25
900,707	2,1
900,919	-0,05
901,13	1,29
901,342	-0,23
901,554	-1,6
901,765	-2,32
901,977	-3,75
902,188	-4,03
902,4	-5,4
902,611	-5,65
902,823	-6,84
903,034	-8,01
903,246	-10,76
903,457	-11,39
903,669	-12,95
903,88	-14,18
904,091	-14,25
904,303	-12,45
904,514	-15,17
904,725	-12,74
904,936	-11,21
905,148	-12,33
905,359	-10,39
905,57	-11,73
905,781	-13,85
905,992	-16,02
906,204	-15,13
906,415	-15,32
906,626	-17,55
906,837	-15,36
907,048	-16,61
907,259	-16,17
907,47	-17,99
907,681	-18,83
907,892	-15,39
908,103	-16,62
908,314	-18,29
908,525	-17,45
908,735	-15,97
908,946	-15,75
909,157	-18,2
909,368	-15,91
909,579	-14,06
909,789	-15,17
910	-16,49
910,211	-14,06
910,421	-13,78
910,632	-13,34
910,843	-17,86
911,053	-14,34
911,264	-13,21
911,475	-14,93
911,685	-14,3
911,896	-14,06
912,106	-12,67
912,317	-14,6
912,527	-12,24
912,737	-12,38
912,948	-11,93
913,158	-12,24
913,369	-15,19
913,579	-12,45
913,789	-11,79
914	-6,77
914,21	-6,85
914,42	-8,4
914,63	-8,77
914,841	-8,5
915,051	-5,97
915,261	-5,19
915,471	-3,16
915,681	-1,74
915,891	-1,43
916,101	-2,78
916,311	-0,97
916,521	1,02
916,731	1,09
916,941	3,16
917,151	1,02
917,361	5,05
917,571	-0,16
917,781	-2,57
917,991	-3,63
918,201	-4,53
918,411	-7,42
918,621	-7,69
918,83	-6,74
919,04	-8,48
919,25	-6,66
919,46	-3,98
919,669	-6,11
919,879	-6,48
920,089	-8,3
920,298	-10,85
920,508	-12,37
920,717	-12,18
920,927	-13,62
921,136	-12,31
921,346	-12,85
921,555	-15,56
921,765	-16,36
921,974	-19,44
922,184	-21,48
922,393	-22,62
922,603	-23,39
922,812	-20,87
923,021	-21,53
923,23	-23,91
923,44	-25,97
923,649	-25,45
923,858	-26,02
924,067	-25,57
924,277	-26,94
924,486	-26,32
924,695	-26,66
924,904	-24,29
925,113	-25
925,322	-23,07
925,531	-21,76
925,74	-24,56
925,949	-27,14
926,158	-23,95
926,367	-23,16
926,576	-23,49
926,785	-23,6
926,994	-24,33
927,203	-23,34
927,412	-23,08
927,621	-24,29
927,83	-21,78
928,038	-22,11
928,247	-22,2
928,456	-20,11
928,665	-18,5
928,873	-17,11
929,082	-14,9
929,291	-15,21
929,499	-13,27
929,708	-14,39
929,916	-14,31
930,125	-14,7
930,333	-16,2
930,542	-13,51
930,75	-10,61
930,959	-8,64
931,167	-7,65
931,376	-8,12
931,584	-7,56
931,793	-7,81
932,001	-9,04
932,209	-8,9
932,418	-10,87
932,626	-12,5
932,834	-14,64
933,042	-17,18
933,251	-16,34
933,459	-15,83
933,667	-17,03
933,875	-16,73
934,083	-15,23
934,291	-14,18
934,499	-13,54
934,707	-15,2
934,915	-16,22
935,123	-14,2
935,331	-15,87
935,539	-18,54
935,747	-21,62
935,955	-23,49
936,163	-22,35
936,371	-21,05
936,579	-19,38
936,787	-19,27
936,995	-21,59
937,202	-23,59
937,41	-22,42
937,618	-23,25
937,826	-23,21
938,033	-27,06
938,241	-29,25
938,449	-26,63
938,656	-25,68
938,864	-25,08
939,071	-25,1
939,279	-21,17
939,486	-17,61
939,694	-17,06
939,901	-19,48
940,109	-19,45
940,316	-19,07
940,524	-20,12
940,731	-22,96
940,939	-22,5
941,146	-21,7
941,353	-22
941,561	-22,79
941,768	-22,95
941,975	-21,52
942,182	-20,27
942,39	-19,08
942,597	-15,79
942,804	-15,95
943,011	-17,12
943,218	-16,16
943,425	-15,45
943,632	-15,25
943,839	-18,39
944,046	-18,14
944,253	-17,3
944,46	-14,83
944,667	-11
944,874	-13,71
945,081	-12
945,288	-10,99
945,495	-9,04
945,702	-9,69
945,909	-12,67
946,115	-12,65
946,322	-12,66
946,529	-12,75
946,736	-13,35
946,942	-11,58
947,149	-10,56
947,356	-12,42
947,562	-13,22
947,769	-13,14
947,976	-14,09
948,182	-14,18
948,389	-14,84
948,595	-14,66
948,802	-14,5
949,008	-16,87
949,215	-15,31
949,421	-16,01
949,628	-17,34
949,834	-17,83
950,04	-17,68
950,247	-13,14
950,453	-11,7
950,659	-13,77
950,865	-13,36
951,072	-18,52
951,278	-15,14
951,484	-16,81
951,69	-19,35
951,896	-21,14
952,103	-22,77
952,309	-21,11
952,515	-21,16
952,721	-18,04
952,927	-16,67
953,133	-17,99
953,339	-20,21
953,545	-21,62
953,751	-19,32
953,957	-17,5
954,163	-18,34
954,369	-16,96
954,574	-15,9
954,78	-15,08
954,986	-14,49
955,192	-14,07
955,398	-14,8
955,603	-19
955,809	-16,86
956,015	-16,06
956,22	-16,15
956,426	-15,57
956,632	-19,1
956,837	-19,07
957,043	-18,3
957,248	-17,3
957,454	-16,52
957,66	-19,23
957,865	-19,78
958,07	-18,42
958,276	-18,59
958,481	-19,6
958,687	-19,62
958,892	-18,28
959,097	-19,52
959,303	-19,97
959,508	-20,2
959,713	-20,59
959,919	-19,67
960,124	-21,68
960,329	-21,04
960,534	-17,78
960,739	-17,31
960,945	-15,95
961,15	-16,46
961,355	-18,02
961,56	-21,08
961,765	-22,23
961,97	-20,34
962,175	-18,79
962,38	-22,11
962,585	-21,47
962,79	-23,01
962,995	-24,57
963,2	-26,21
963,404	-26,5
963,609	-28,88
963,814	-29,06
964,019	-31,42
964,224	-32,45
964,428	-29,98
964,633	-28,34
964,838	-26,76
965,042	-26,8
965,247	-29,52
965,452	-29,45
965,656	-28,57
965,861	-26,68
966,066	-26,76
966,27	-24,91
966,475	-19,62
966,679	-24,27
966,884	-24,86
967,088	-28,16
967,292	-29,65
967,497	-28,24
967,701	-29,27
967,906	-27,3
968,11	-24,68
968,314	-21,26
968,518	-23,61
968,723	-20,13
968,927	-18,7
969,131	-17,12
969,335	-13,58
969,539	-13,71
969,744	-10,88
969,948	-7,93
970,152	-6,4
970,356	-4,96
970,56	-4,53
970,764	-6,77
970,968	-5,72
971,172	-4,25
971,376	-4,77
971,58	-3,64
971,784	-3,14
971,988	-4,96
972,192	-2,2
972,395	-3,46
972,599	-6,53
972,803	-9,4
973,007	-6,96
973,21	-6,19
973,414	-5,93
973,618	-6,15
973,822	-7,22
974,025	-6,38
974,229	-7,34
974,432	-10,82
974,636	-13,38
974,84	-11,52
975,043	-11,11
975,247	-11,73
975,45	-14,05
975,654	-14,37
975,857	-12,83
976,06	-14,74
976,264	-18,3
976,467	-15,02
976,671	-15,69
976,874	-14,93
977,077	-16,13
977,28	-16,54
977,484	-20,57
977,687	-21,04
977,89	-19,25
978,093	-19,67
978,297	-18,89
978,5	-22,25
978,703	-18,41
978,906	-16,67
979,109	-16,95
979,312	-16,17
979,515	-18,34
979,718	-17,24
979,921	-18,56
980,124	-21,17
980,327	-21,64
980,53	-20,96
980,733	-19,07
980,936	-17,37
981,138	-19,67
981,341	-19,04
981,544	-19,09
981,747	-18,97
981,949	-20,52
982,152	-20,23
982,355	-20,82
982,558	-14,83
982,76	-19,48
982,963	-18,41
983,165	-18,73
983,368	-16,5
983,571	-17,91
983,773	-14,77
983,976	-13,95
984,178	-13,71
984,381	-14,05
984,583	-16,23
984,785	-16,09
984,988	-15,13
985,19	-13,58
985,392	-14,51
985,595	-17,17
985,797	-15,09
985,999	-12,83
986,202	-9,4
986,404	-7,08
986,606	-4,23
986,808	-5,88
987,01	-4,59
987,212	-5,2
987,415	-5,8
987,617	-5,2
987,819	-7,52
988,021	-5,13
988,223	-5,53
988,425	-6,27
988,627	-6,89
988,829	-12,28
989,031	-10,06
989,232	-11,89
989,434	-9,33
989,636	-10,36
989,838	-9,41
990,04	-7,5
990,242	-7,73
990,443	-9,89
990,645	-8,15
990,847	-3,75
991,048	-2,81
991,25	-5,65
991,452	-7,62
991,653	-8,75
991,855	-7,1
992,057	-7,97
992,258	-7,3
992,46	-8,93
992,661	-9,08
992,863	-9,14
993,064	-8,4
993,265	-8,02
993,467	-10,54
993,668	-8,83
993,87	-9,52
994,071	-8,4
994,272	-9,04
994,473	-8,31
994,675	-7,81
994,876	-5,26
995,077	-4,86
995,278	-4,24
995,48	-3,09
995,681	-6,11
995,882	-3,71
996,083	-5,23
996,284	-9,34
996,485	-10,1
996,686	-11,33
996,887	-12,11
997,088	-17,45
997,289	-18,78
997,49	-18,26
997,691	-18,37
997,892	-19,35
998,092	-16,3
998,293	-16,98
998,494	-18,89
998,695	-19,83
998,896	-18,11
999,096	-19,7
999,297	-17,94
999,498	-21,66
999,698	-23,15
999,899	-25,48
1000,1	-27,23
1000,3	-26,05
1000,501	-27,22
1000,701	-27,43
1000,902	-27,96
1001,102	-28,77
1001,303	-26,49
1001,503	-29,18
1001,704	-28,66
1001,904	-28,49
1002,105	-30,33
1002,305	-29,1
1002,505	-30,64
1002,706	-31,09
1002,906	-30,19
1003,106	-30,57
1003,306	-27,89
1003,507	-26,35
1003,707	-27,22
1003,907	-24,49
1004,107	-23,27
1004,307	-24,25
1004,507	-22,77
1004,707	-22,29
1004,907	-23,25
1005,107	-24,49
1005,308	-22,89
1005,507	-25,38
1005,707	-21,67
1005,907	-20,31
1006,107	-16,49
1006,307	-16
1006,507	-18,04
1006,707	-16,34
1006,907	-15,53
1007,106	-15,94
1007,306	-17,03
1007,506	-16,94
1007,706	-16,83
1007,905	-18,23
1008,105	-18,16
1008,305	-18,53
1008,504	-18,83
1008,704	-12,72
1008,903	-11,7
1009,103	-10,68
1009,303	-13,24
1009,502	-12,18
1009,702	-14,02
1009,901	-12,89
1010,1	-16,04
1010,3	-12,88
1010,499	-15,14
1010,699	-16,61
1010,898	-18,22
1011,097	-17,25
1011,296	-17,87
1011,496	-20,7
1011,695	-20,25
1011,894	-22
1012,093	-19,24
1012,293	-21,12
1012,492	-20,43
1012,691	-19,79
1012,89	-21,08
1013,089	-22,82
1013,288	-22,15
1013,487	-21,11
1013,686	-22,85
1013,885	-23
1014,084	-21,92
1014,283	-21,96
1014,482	-22,41
1014,681	-22,29
1014,88	-27,7
1015,078	-25,54
1015,277	-26,05
1015,476	-27,07
1015,675	-28,63
1015,873	-26,3
1016,072	-28,65
1016,271	-25,58
1016,47	-29,94
1016,668	-27,3
1016,867	-28,57
1017,065	-30,49
1017,264	-31,28
1017,463	-30,32
1017,661	-28,39
1017,86	-28,84
1018,058	-27,48
1018,256	-29,53
1018,455	-30,49
1018,653	-29,56
1018,852	-28,4
1019,05	-29,77
1019,248	-30,76
1019,447	-31,59
1019,645	-32,86
1019,843	-34,32
1020,041	-33,42
1020,24	-34,38
1020,438	-30,87
1020,636	-30,7
1020,834	-32,74
1021,032	-29,6
1021,23	-32,47
1021,428	-30,72
1021,626	-26,17
1021,824	-25,72
1022,022	-27,02
1022,22	-22,85
1022,418	-21,99
1022,616	-22,13
1022,814	-23,13
1023,012	-22,57
1023,21	-19,48
1023,408	-19,27
1023,606	-20,41
1023,803	-14,79
1024,001	-13,87
1024,199	-17,38
1024,397	-16,57
1024,594	-17,11
1024,792	-19,46
1024,99	-18,75
1025,187	-16,92
1025,385	-12,89
1025,582	-12,86
1025,78	-12,54
1025,977	-10,15
1026,175	-9,42
1026,372	-8,4
1026,57	-11,1
1026,767	-9,54
1026,965	-8,07
1027,162	-8,43
1027,359	-8,73
1027,557	-8,14
1027,754	-11,33
1027,951	-11,31
1028,148	-9,81
1028,346	-14,04
1028,543	-16,89
1028,74	-16,64
1028,937	-18,95
1029,134	-19,85
1029,331	-21,6
1029,528	-21,3
1029,725	-20,01
1029,923	-25,36
1030,12	-23,44
1030,317	-21,11
1030,513	-20,05
1030,71	-17,61
1030,907	-14,07
1031,104	-15,62
1031,301	-18,96
1031,498	-19,24
1031,695	-18,97
1031,892	-18,09
1032,088	-17,9
1032,285	-20,56
1032,482	-21,37
1032,678	-23,09
1032,875	-25,46
1033,072	-26,24
1033,268	-25,46
1033,465	-23,97
1033,662	-28,38
1033,858	-28,26
1034,055	-29,01
1034,251	-26,9
1034,448	-26,8
1034,644	-26,87
1034,84	-24,05
1035,037	-21,12
1035,233	-20,65
1035,43	-18,31
1035,626	-18,15
1035,822	-18,22
1036,019	-18,9
1036,215	-21,69
1036,411	-23,16
1036,607	-24,42
1036,803	-26,9
1037	-28,07
1037,196	-29,36
1037,392	-29,02
1037,588	-32,35
1037,784	-31,17
1037,98	-33,86
1038,176	-33,92
1038,372	-33,29
1038,568	-31,83
1038,764	-30,01
1038,96	-27,43
1039,156	-28,16
1039,352	-30,43
1039,547	-30,03
1039,743	-27,51
1039,939	-23,45
1040,135	-23,21
1040,331	-24,98
1040,526	-21,54
1040,722	-23,33
1040,918	-24,51
1041,113	-27,69
1041,309	-27,24
1041,505	-30,23
1041,7	-29,84
1041,896	-30,35
1042,091	-30,6
1042,287	-29,39
1042,482	-27,72
1042,678	-28
1042,873	-26,9
1043,069	-28,69
1043,264	-27,4
1043,459	-24,72
1043,655	-22,51
1043,85	-24,04
1044,045	-21,17
1044,24	-22,2
1044,436	-20,07
1044,631	-21,27
1044,826	-22,16
1045,021	-24,54
1045,216	-22,83
