Data from led_4000k_2_FLMT021711__1__17-32-17-920.txt Node

Date: Tue Nov 05 17:32:17 CET 2024
User: Etudiants TP
Spectrometer: FLMT02171
Trigger mode: 0
Integration Time (sec): 1,000000E-1
Scans to average: 5
Electric dark correction enabled: true
Nonlinearity correction enabled: true
Boxcar width: 15
XAxis mode: Wavelengths
Number of Pixels in Spectrum: 3648
>>>>>Begin Spectral Data<<<<<
194,658	-62,96
194,923	-61,35
195,188	-54,95
195,453	-54,84
195,717	-47,34
195,982	-44,23
196,247	-41,85
196,512	-44,21
196,777	-41,94
197,042	-40,45
197,307	-40,07
197,572	-35,74
197,837	-36,59
198,101	-34,32
198,366	-32,09
198,631	-30,26
198,896	-23,14
199,161	-15,57
199,425	-8,99
199,69	0,36
199,955	-1,41
200,22	-4,53
200,484	-5,19
200,749	-5,35
201,014	-3,47
201,278	-3,88
201,543	-2,29
201,807	-2,43
202,072	-0,4
202,337	0,37
202,601	0,36
202,866	-1,2
203,13	-0,43
203,395	-1,87
203,659	-2,51
203,924	-5,21
204,189	-6,54
204,453	-6,67
204,717	-4,91
204,982	-4,8
205,246	-2,65
205,511	-0,89
205,775	-2,18
206,04	4,49
206,304	5,63
206,568	7,19
206,833	7,97
207,097	7,98
207,361	9,6
207,626	15,16
207,89	15,59
208,154	18,03
208,419	19,45
208,683	19,52
208,947	21,53
209,211	20,42
209,476	21,28
209,74	22,26
210,004	22,01
210,268	22,29
210,532	24,14
210,796	24,73
211,061	25,89
211,325	26,61
211,589	25,11
211,853	26,55
212,117	26,68
212,381	27,64
212,645	29,56
212,909	30,51
213,173	29,32
213,437	28,51
213,701	29,32
213,965	30,67
214,229	26,21
214,493	26,29
214,757	25,37
215,021	23,95
215,285	27,86
215,549	28,61
215,813	25,84
216,077	25,61
216,34	27,01
216,604	26,55
216,868	27,12
217,132	27,91
217,396	27,9
217,659	28,1
217,923	23,4
218,187	23,48
218,451	22,66
218,714	20,45
218,978	20,26
219,242	21,4
219,505	23,76
219,769	25,17
220,033	25,77
220,296	26,8
220,56	29,09
220,824	26,83
221,087	27,51
221,351	26,29
221,614	26,16
221,878	26,44
222,142	24,1
222,405	23,14
222,669	24,57
222,932	21,41
223,196	19,9
223,459	16,61
223,722	17,57
223,986	15,72
224,249	14,53
224,513	13,65
224,776	13,59
225,04	12,77
225,303	12,27
225,566	10,61
225,83	12,32
226,093	15,52
226,356	13,65
226,62	10,86
226,883	12,73
227,146	13,34
227,409	12,55
227,673	8,74
227,936	7,8
228,199	7,87
228,462	7,07
228,725	4,14
228,989	2,51
229,252	3,27
229,515	8,78
229,778	8,02
230,041	5,86
230,304	5,69
230,567	6,23
230,83	2,42
231,093	3,98
231,356	4,52
231,619	10,85
231,882	9
232,145	10,18
232,408	9,26
232,671	8,19
232,934	7,73
233,197	7,97
233,46	7,5
233,723	8,51
233,986	6,36
234,249	4,07
234,512	6,65
234,775	10,83
235,037	9,59
235,3	9,51
235,563	8,96
235,826	9,7
236,089	12,12
236,351	11,18
236,614	12,06
236,877	13,68
237,14	16,34
237,402	16,05
237,665	10,88
237,928	10,29
238,19	9,55
238,453	10,79
238,716	10,49
238,978	11,62
239,241	12,06
239,503	13,45
239,766	7,84
240,029	7,65
240,291	10,83
240,554	11,3
240,816	12,56
241,079	13,28
241,341	11,98
241,604	9,82
241,866	8,25
242,129	9,96
242,391	11,99
242,653	10,09
242,916	9,87
243,178	8,68
243,441	8,73
243,703	8,21
243,965	7,44
244,228	6,95
244,49	8,14
244,752	9,09
245,015	8,5
245,277	10,84
245,539	9,6
245,801	11,65
246,064	10,64
246,326	8,95
246,588	8,49
246,85	11,76
247,112	11,82
247,374	12,77
247,637	14,78
247,899	15,54
248,161	15,32
248,423	11,33
248,685	10,91
248,947	10,39
249,209	10,46
249,471	11,82
249,733	13,3
249,995	12,46
250,257	10,68
250,519	8,77
250,781	12,8
251,043	11,15
251,305	14,49
251,567	17,64
251,829	18,18
252,091	18,31
252,353	15,71
252,615	15,59
252,876	13,36
253,138	12,2
253,4	7,91
253,662	8,96
253,924	9,23
254,185	10,81
254,447	12,08
254,709	12,68
254,971	12,46
255,232	15,94
255,494	14,08
255,756	12,14
256,017	11,77
256,279	13,08
256,541	13,82
256,802	14,16
257,064	14,2
257,326	12,99
257,587	13,78
257,849	14,98
258,11	17,35
258,372	18,61
258,633	20,21
258,895	17,7
259,156	16,55
259,418	15,21
259,679	10,2
259,941	7,77
260,202	10,41
260,464	11,67
260,725	10,81
260,987	9,91
261,248	9,32
261,509	10,99
261,771	9,52
262,032	11,9
262,293	12,1
262,555	12,46
262,816	10,36
263,077	7,74
263,338	3,49
263,6	4,37
263,861	4,88
264,122	4,18
264,383	4,99
264,645	4,66
264,906	4,06
265,167	5,22
265,428	5,31
265,689	5,9
265,95	2,87
266,211	4,58
266,473	3,77
266,734	0,44
266,995	-1,39
267,256	-0,32
267,517	1,33
267,778	5,16
268,039	7,72
268,3	5,5
268,561	2,85
268,822	6,73
269,083	6,11
269,344	4,89
269,604	2,5
269,865	2,85
270,126	-1,96
270,387	-0,69
270,648	0,48
270,909	0,89
271,17	0,17
271,43	-1,69
271,691	-3,61
271,952	-5,34
272,213	-3,48
272,473	-5,65
272,734	-3,36
272,995	-1,88
273,256	-1,48
273,516	0,17
273,777	-1,71
274,038	0,8
274,298	-1,44
274,559	-1,32
274,82	3,29
275,08	6,38
275,341	7,76
275,601	7,53
275,862	5,39
276,122	6,1
276,383	7,19
276,643	9,92
276,904	5,85
277,164	8,93
277,425	10,46
277,685	15,54
277,946	15,64
278,206	17,14
278,467	18,67
278,727	18,66
278,987	18,41
279,248	19,05
279,508	20,75
279,768	22,23
280,029	24,53
280,289	21,06
280,549	19,82
280,81	19,66
281,07	19,27
281,33	20,56
281,59	18,84
281,851	20,83
282,111	18,94
282,371	18,12
282,631	18,85
282,891	17,89
283,151	15,74
283,412	13,2
283,672	11,58
283,932	10,91
284,192	11,25
284,452	8,67
284,712	6,35
284,972	6,45
285,232	3,93
285,492	6,28
285,752	4,66
286,012	10,89
286,272	13,96
286,532	11,26
286,792	11,73
287,052	12,43
287,312	10,87
287,571	10,25
287,831	10,88
288,091	7,37
288,351	8,35
288,611	12,4
288,871	11,83
289,13	10,62
289,39	6,23
289,65	7,25
289,91	4,15
290,17	7,31
290,429	10,86
290,689	9,02
290,949	6,26
291,208	8,99
291,468	13,46
291,728	14,65
291,987	16,83
292,247	14,66
292,506	17,64
292,766	20,9
293,026	20,16
293,285	20,71
293,545	23,51
293,804	22,2
294,064	19,37
294,323	15,64
294,583	16,06
294,842	15,67
295,102	15,89
295,361	18,22
295,621	17,65
295,88	18,55
296,139	18,79
296,399	21,07
296,658	16,33
296,917	15,44
297,177	13,5
297,436	16,09
297,695	14,42
297,955	17,89
298,214	17,73
298,473	17,52
298,732	18,67
298,992	20,57
299,251	19,67
299,51	15,13
299,769	16,13
300,028	17,07
300,287	18,23
300,547	18,33
300,806	15,74
301,065	19,05
301,324	21,03
301,583	16,46
301,842	14,12
302,101	10,93
302,36	12,18
302,619	11,14
302,878	12,86
303,137	11,54
303,396	12,8
303,655	14,75
303,914	10,61
304,173	12,66
304,432	11,59
304,691	14,49
304,95	11,79
305,208	16,23
305,467	16,74
305,726	17,3
305,985	16,83
306,244	17,18
306,503	16,31
306,761	15,45
307,02	12,72
307,279	11,25
307,537	11,83
307,796	9,48
308,055	5,86
308,314	7,39
308,572	5,14
308,831	6,43
309,09	6,86
309,348	8,95
309,607	8,49
309,865	11,51
310,124	11,29
310,382	12,39
310,641	14,24
310,9	11,87
311,158	12,71
311,417	11,29
311,675	11,79
311,933	13,71
312,192	13,78
312,45	14,23
312,709	14,97
312,967	16,05
313,226	14,41
313,484	12,6
313,742	10,72
314,001	9,24
314,259	7,48
314,517	8,63
314,776	10,91
315,034	14,86
315,292	12,9
315,55	10,38
315,809	8,99
316,067	8,51
316,325	5,86
316,583	7,02
316,841	6,67
317,1	3,82
317,358	-1,83
317,616	-2,85
317,874	-4,32
318,132	-4,16
318,39	-3,51
318,648	-5,67
318,906	-4,5
319,164	-5,8
319,422	-6,01
319,68	-6,75
319,938	-6,35
320,196	-6,34
320,454	-6,35
320,712	-7,74
320,97	-5,87
321,228	-6,42
321,486	-3,66
321,744	-2,22
322,002	-0,15
322,26	-0,5
322,517	-1,83
322,775	-4,28
323,033	-6,27
323,291	-3,53
323,549	-0,03
323,806	1,77
324,064	4,56
324,322	6,81
324,58	5,69
324,837	7,16
325,095	5,56
325,353	8,49
325,61	12,05
325,868	11,83
326,126	13,72
326,383	10,82
326,641	10,28
326,898	8,5
327,156	9,59
327,413	9,01
327,671	8,27
327,928	10,26
328,186	9,84
328,443	9,09
328,701	13,21
328,958	11,87
329,216	11,47
329,473	8,21
329,731	8,26
329,988	9,82
330,245	11,77
330,503	13,6
330,76	14,4
331,017	16,62
331,275	13,97
331,532	13,24
331,789	11,02
332,047	8,49
332,304	5,1
332,561	6,71
332,818	4,52
333,076	6,56
333,333	8,27
333,59	6,7
333,847	8,22
334,104	6,82
334,361	7,31
334,618	6,13
334,876	5,84
335,133	6,44
335,39	5,59
335,647	6,94
335,904	3,3
336,161	2,67
336,418	3,2
336,675	-1,83
336,932	0,82
337,189	1,05
337,446	0,96
337,703	0,27
337,96	-6,26
338,216	-6,34
338,473	-9,78
338,73	-9,1
338,987	-8,76
339,244	-3,92
339,501	-5,52
339,757	-3,07
340,014	-0,74
340,271	1,3
340,528	1,71
340,785	6,39
341,041	6,94
341,298	3,24
341,555	4,29
341,811	2,77
342,068	1,16
342,325	1,27
342,581	4,99
342,838	7,11
343,094	7,01
343,351	7,14
343,608	5,31
343,864	8,28
344,121	7,77
344,377	6,63
344,634	6,49
344,89	4,05
345,147	4,27
345,403	4,48
345,66	4,14
345,916	7,38
346,172	5,43
346,429	4,87
346,685	3,53
346,942	1,68
347,198	-3,19
347,454	-1,66
347,711	-2,28
347,967	-4,55
348,223	-5,38
348,48	-6,29
348,736	-4,01
348,992	-4,96
349,248	-3,57
349,504	-5,24
349,761	-4
350,017	-4,24
350,273	-4,39
350,529	-5,03
350,785	-5,77
351,041	-6,39
351,297	-4,98
351,554	-6,82
351,81	-8,98
352,066	-9,34
352,322	-9,23
352,578	-7
352,834	-5,92
353,09	-6,71
353,346	-6,69
353,602	-6,88
353,858	-7,82
354,114	-9,53
354,369	-6,82
354,625	-5,01
354,881	-6,71
355,137	-4,84
355,393	-4,81
355,649	-4,24
355,905	-4,42
356,16	-3,72
356,416	-3,2
356,672	-10,08
356,928	-9,28
357,183	-8,74
357,439	-8,15
357,695	-10,52
357,951	-5,79
358,206	-5,88
358,462	-7,5
358,718	-9,68
358,973	-9,86
359,229	-9,97
359,484	-7,71
359,74	-4,95
359,996	-4,39
360,251	-0,88
360,507	-1,88
360,762	-3,38
361,018	-1,43
361,273	-3,51
361,529	-3,4
361,784	-3,39
362,04	-0,87
362,295	-2,46
362,55	-3,33
362,806	0,46
363,061	1
363,316	1,78
363,572	1,64
363,827	4,2
364,082	1,55
364,338	1,29
364,593	0,98
364,848	1,71
365,104	0,55
365,359	2,73
365,614	4,29
365,869	1,3
366,124	2,04
366,38	1,56
366,635	2,9
366,89	4,47
367,145	5,31
367,4	7,5
367,655	8,14
367,91	8,91
368,165	7,22
368,42	3,96
368,675	5,65
368,93	7,6
369,185	6,65
369,44	7,87
369,695	10
369,95	8,67
370,205	7,55
370,46	7,07
370,715	5,77
370,97	7,06
371,225	6,57
371,48	7,5
371,734	6,93
371,989	8,71
372,244	8,58
372,499	11,51
372,754	10,31
373,008	7,84
373,263	3,51
373,518	4,84
373,773	3,6
374,027	2,56
374,282	6,26
374,537	8,07
374,791	9,3
375,046	8,85
375,301	8,78
375,555	5,14
375,81	6,15
376,064	5,77
376,319	9,28
376,573	7,96
376,828	3,96
377,082	8,61
377,337	5,83
377,591	3,31
377,846	4,55
378,1	8,13
378,355	10
378,609	8,5
378,863	6,98
379,118	7,96
379,372	6,5
379,627	4,73
379,881	2,94
380,135	3,19
380,389	2,66
380,644	3,18
380,898	3,84
381,152	5,96
381,407	6,06
381,661	8,59
381,915	9,36
382,169	8,57
382,423	6,96
382,677	3,69
382,932	3,78
383,186	2,63
383,44	4,33
383,694	6,64
383,948	5,02
384,202	5,24
384,456	6,93
384,71	8,54
384,964	6,78
385,218	9,59
385,472	9,68
385,726	8,83
385,98	8,14
386,234	6,52
386,488	4,01
386,742	4,65
386,996	2,96
387,249	4,86
387,503	7,3
387,757	8,7
388,011	7,7
388,265	8,41
388,518	9,5
388,772	12,38
389,026	13
389,28	11,36
389,533	9,81
389,787	12,86
390,041	9,55
390,295	9,45
390,548	10,04
390,802	12,8
391,055	12,68
391,309	12,42
391,563	9,53
391,816	11,01
392,07	8,96
392,323	10,19
392,577	12,06
392,83	12,35
393,084	18,92
393,337	24,27
393,591	25,57
393,844	25,01
394,098	29,19
394,351	34,34
394,604	34,86
394,858	37,19
395,111	36,76
395,364	35,28
395,618	38,27
395,871	38,12
396,124	37,34
396,378	36,71
396,631	36,04
396,884	33,57
397,137	32,84
397,391	34,45
397,644	31,66
397,897	32,89
398,15	35,67
398,403	37,89
398,657	35,69
398,91	35,65
399,163	36,29
399,416	35,69
399,669	33,58
399,922	33,02
400,175	30,92
400,428	28,14
400,681	28,46
400,934	21,97
401,187	19,75
401,44	19,68
401,693	18,86
401,946	15,36
402,199	11,07
402,452	10,91
402,704	7,44
402,957	7,01
403,21	8,72
403,463	6,88
403,716	7,15
403,969	7,67
404,221	6,98
404,474	8,17
404,727	11,23
404,98	14,1
405,232	14,04
405,485	13,81
405,738	15,86
405,99	14,25
406,243	15,35
406,496	17,04
406,748	16,35
407,001	15,43
407,253	16,08
407,506	16,6
407,759	17,19
408,011	15,07
408,264	16,72
408,516	16,68
408,769	15,41
409,021	15,81
409,274	14,65
409,526	16,91
409,778	16,02
410,031	18,36
410,283	18,33
410,536	22,87
410,788	20,18
411,04	19,22
411,293	20,41
411,545	21,82
411,797	21,35
412,049	21,32
412,302	22,29
412,554	22,95
412,806	19,41
413,058	16,79
413,311	17,52
413,563	16,54
413,815	17,49
414,067	15,53
414,319	13,97
414,571	16,01
414,823	14,34
415,075	14,15
415,328	15,32
415,58	18,54
415,832	20,01
416,084	19,65
416,336	19,51
416,588	23,48
416,84	22,26
417,091	25,71
417,343	21,8
417,595	23,79
417,847	24,65
418,099	25,22
418,351	24,8
418,603	29,24
418,855	30,42
419,106	30,54
419,358	31,03
419,61	31,42
419,862	33,46
420,114	31,15
420,365	31,53
420,617	34,19
420,869	33,56
421,12	34,23
421,372	35,2
421,624	34,73
421,875	34,78
422,127	32,23
422,379	30,91
422,63	34,27
422,882	32,64
423,133	34,31
423,385	34,98
423,636	36,19
423,888	40,41
424,139	41,61
424,391	38,63
424,642	36,5
424,894	35,97
425,145	36,71
425,396	33,85
425,648	35,98
425,899	34,16
426,151	34,76
426,402	32,57
426,653	32,65
426,905	32,21
427,156	30,79
427,407	29,77
427,658	28,7
427,91	28,16
428,161	27
428,412	29,24
428,663	31,68
428,914	32,26
429,166	33,56
429,417	33,49
429,668	32,34
429,919	31,32
430,17	31,68
430,421	32,12
430,672	36,14
430,923	34,76
431,174	32,68
431,425	33,37
431,676	31,76
431,927	30,37
432,178	33,91
432,429	36,08
432,68	35,47
432,931	40,29
433,182	44,59
433,433	43,25
433,683	45,8
433,934	45,16
434,185	45,83
434,436	44,88
434,687	46,2
434,937	48,48
435,188	48,46
435,439	48,03
435,69	50,17
435,94	50,26
436,191	51,37
436,442	50,98
436,692	51,72
436,943	48,79
437,194	48,47
437,444	52,15
437,695	57,25
437,945	59,13
438,196	58,63
438,447	58,37
438,697	60,91
438,948	61,78
439,198	60,63
439,449	57,92
439,699	60,41
439,949	61,25
440,2	60,68
440,45	62,93
440,701	61,41
440,951	62,02
441,201	62,55
441,452	63,2
441,702	64,04
441,952	65,88
442,203	68,91
442,453	69,9
442,703	71,42
442,953	73,6
443,204	76,58
443,454	76,94
443,704	79,56
443,954	78,36
444,204	81,93
444,455	83,92
444,705	88,2
444,955	90,66
445,205	90,93
445,455	89,99
445,705	92,35
445,955	94,26
446,205	95,97
446,455	97,48
446,705	100,08
446,955	102,92
447,205	107,45
447,455	111,49
447,705	109,99
447,955	111,93
448,205	114,28
448,454	117,47
448,704	120,55
448,954	122,69
449,204	124,95
449,454	127,1
449,704	127,93
449,953	128,5
450,203	132,34
450,453	131,71
450,703	137,74
450,952	138,72
451,202	141,32
451,452	143,59
451,701	146,28
451,951	151,76
452,201	152,52
452,45	153,56
452,7	155,85
452,949	157,57
453,199	159,99
453,448	162,63
453,698	165,08
453,947	164,53
454,197	164,7
454,446	165,88
454,696	170,33
454,945	170,23
455,195	168,34
455,444	172,06
455,693	177,47
455,943	174,89
456,192	175,49
456,442	174,97
456,691	176,11
456,94	175,73
457,189	175,34
457,439	178,77
457,688	181,34
457,937	181,09
458,186	183,13
458,436	180,47
458,685	181,21
458,934	180,38
459,183	178,6
459,432	181,35
459,681	180,18
459,93	179,35
460,179	178,69
460,429	176,72
460,678	177,87
460,927	179,5
461,176	176,85
461,425	175,43
461,674	178,09
461,923	178,08
462,172	177
462,42	174,05
462,669	175,52
462,918	173,72
463,167	171,02
463,416	166,83
463,665	167,44
463,914	165,52
464,162	164,03
464,411	163,61
464,66	163,91
464,909	161,92
465,158	159,97
465,406	157,82
465,655	156,77
465,904	157,27
466,152	157,6
466,401	158,87
466,65	159,99
466,898	157,27
467,147	152,42
467,395	149,99
467,644	151,47
467,893	150
468,141	149,33
468,39	145,78
468,638	142,96
468,887	140,67
469,135	139,62
469,384	139,03
469,632	139,59
469,88	137,38
470,129	137,15
470,377	133,67
470,626	136,36
470,874	137,68
471,122	137,85
471,371	136,93
471,619	136,01
471,867	137,92
472,115	136,81
472,364	136,08
472,612	138,96
472,86	137,38
473,108	137,31
473,356	136,71
473,605	135,74
473,853	133,11
474,101	130,74
474,349	128,54
474,597	131,67
474,845	130,54
475,093	128,9
475,341	123,95
475,589	124,06
475,837	124,83
476,085	126,47
476,333	124,6
476,581	125,94
476,829	125,17
477,077	126,29
477,325	124,21
477,573	126,91
477,821	125,85
478,069	125,87
478,317	125,86
478,564	128,05
478,812	125,82
479,06	124,32
479,308	123,94
479,555	123,56
479,803	121,71
480,051	121,1
480,299	120,15
480,546	120,31
480,794	117,68
481,042	119,32
481,289	118,52
481,537	119,35
481,784	117,05
482,032	120,07
482,28	120,91
482,527	120,79
482,775	122,52
483,022	125,42
483,27	126,87
483,517	131,21
483,765	131,16
484,012	133,25
484,259	133,58
484,507	135,04
484,754	134,76
485,002	134,88
485,249	134,04
485,496	137,39
485,744	136,73
485,991	136,66
486,238	135,91
486,486	139,47
486,733	140,61
486,98	143,57
487,227	141,67
487,474	145,64
487,722	149,19
487,969	147,88
488,216	147,91
488,463	149,34
488,71	146,71
488,957	146,48
489,204	147,26
489,451	150,18
489,699	150,03
489,946	146,08
490,193	146,65
490,44	145,46
490,687	146,95
490,934	144,92
491,18	141,39
491,427	143,71
491,674	145,85
491,921	145,91
492,168	146,64
492,415	145,19
492,662	147,96
492,909	149,8
493,155	148,7
493,402	149,31
493,649	148,12
493,896	148,41
494,142	144,45
494,389	144,9
494,636	142,89
494,883	141,9
495,129	139,67
495,376	137,99
495,623	140,43
495,869	143,41
496,116	145,56
496,362	147,56
496,609	150,11
496,855	155,33
497,102	154,77
497,348	154,67
497,595	157,17
497,841	161,5
498,088	161,77
498,334	161,64
498,581	162,24
498,827	162,81
499,074	164,29
499,32	166,28
499,566	170,04
499,813	171,59
500,059	170,35
500,305	170,01
500,552	169,36
500,798	169,23
501,044	174,42
501,29	173,67
501,537	171,6
501,783	175,99
502,029	180,55
502,275	178,56
502,521	178,91
502,767	179,99
503,013	183,28
503,26	181,39
503,506	177,99
503,752	180,63
503,998	179,96
504,244	181
504,49	178,87
504,736	182,06
504,982	180,99
505,228	183,69
505,474	185,58
505,72	186,91
505,966	188,02
506,211	192,34
506,457	193,12
506,703	189,52
506,949	188,04
507,195	186,71
507,441	183,02
507,686	187,71
507,932	188,21
508,178	190,67
508,424	189,07
508,669	187,05
508,915	189,1
509,161	191,02
509,406	191,54
509,652	191,2
509,898	196,05
510,143	198,41
510,389	199,21
510,634	196,41
510,88	200,93
511,125	204,03
511,371	204,63
511,616	206,05
511,862	204,07
512,107	201,93
512,353	203,15
512,598	205,12
512,844	203,25
513,089	201,13
513,335	203,92
513,58	202,45
513,825	203,01
514,071	202,68
514,316	203,53
514,561	205,8
514,806	205,15
515,052	208,53
515,297	206,36
515,542	207,27
515,787	208
516,033	211,6
516,278	212,01
516,523	211
516,768	211,49
517,013	211,65
517,258	210,66
517,503	211,82
517,748	211,72
517,993	211,05
518,238	211,64
518,483	209,27
518,728	208,43
518,973	205,36
519,218	206,24
519,463	206,73
519,708	207,52
519,953	206,49
520,198	206,11
520,443	209,17
520,688	210,97
520,933	209,59
521,177	210,55
521,422	208,56
521,667	211,13
521,912	212,73
522,157	208,56
522,401	210,75
522,646	211,06
522,891	212,53
523,135	213,88
523,38	215,2
523,625	212,91
523,869	216,31
524,114	218,77
524,358	217,64
524,603	217,47
524,848	215,35
525,092	214,82
525,337	216,8
525,581	219,95
525,826	222,09
526,07	223,42
526,315	225,64
526,559	225,3
526,803	223,62
527,048	228,23
527,292	228,86
527,537	228,33
527,781	227,97
528,025	225,33
528,269	226,77
528,514	227,88
528,758	226,76
529,002	227,44
529,247	231,13
529,491	228,67
529,735	233,22
529,979	233,9
530,223	235,25
530,467	233,09
530,712	231,87
530,956	230,07
531,2	232,39
531,444	229,08
531,688	230,09
531,932	230,53
532,176	230,79
532,42	232,96
532,664	233,79
532,908	233,23
533,152	230,67
533,396	228,98
533,64	227,44
533,884	226,07
534,128	226,85
534,371	227,99
534,615	227,7
534,859	226,29
535,103	226,11
535,347	228,12
535,59	230,1
535,834	226,66
536,078	226,97
536,322	230,55
536,565	232,92
536,809	230,36
537,053	233,84
537,296	231,74
537,54	231,02
537,784	229,88
538,027	232,31
538,271	230,77
538,514	230,74
538,758	230,16
539,001	228,92
539,245	228,77
539,488	230,51
539,732	233,5
539,975	233,96
540,219	234,68
540,462	233,86
540,706	236,58
540,949	236,84
541,192	238,31
541,436	243,57
541,679	248,02
541,922	248,77
542,166	245,36
542,409	246,46
542,652	246,85
542,895	248,23
543,139	248,89
543,382	254,7
543,625	253,11
543,868	252,1
544,111	249,58
544,354	247,82
544,598	247,08
544,841	249,28
545,084	249,21
545,327	249,45
545,57	250,03
545,813	251,81
546,056	250,9
546,299	252,41
546,542	255,4
546,785	258,42
547,028	259,51
547,271	257,5
547,514	257,01
547,756	255,19
547,999	255,66
548,242	256,84
548,485	255,34
548,728	256,2
548,971	251,64
549,213	252,33
549,456	251,35
549,699	252,44
549,942	253,35
550,184	253,95
550,427	252,45
550,67	252,9
550,912	247,23
551,155	248,88
551,398	247,86
551,64	247,69
551,883	249,65
552,125	246,82
552,368	246,18
552,61	242,34
552,853	243,8
553,095	241,88
553,338	241,18
553,58	242,7
553,823	240,67
554,065	243,37
554,308	239,11
554,55	236,47
554,792	234,04
555,035	233,22
555,277	231,52
555,519	231,79
555,762	228,95
556,004	229,29
556,246	225,43
556,488	225,73
556,731	222,21
556,973	224,55
557,215	222,59
557,457	223,04
557,699	224,82
557,941	224,22
558,183	223,05
558,426	225,93
558,668	224,18
558,91	226,19
559,152	227,84
559,394	226,81
559,636	231,21
559,878	231,97
560,12	233,87
560,362	234,49
560,604	235,8
560,845	236,21
561,087	235,5
561,329	237,78
561,571	234,16
561,813	235,59
562,055	233,89
562,297	235,02
562,538	235,69
562,78	239,87
563,022	239,28
563,264	241,02
563,505	243,47
563,747	244,47
563,989	243,81
564,23	243,78
564,472	241,71
564,714	247,17
564,955	248,19
565,197	245,47
565,438	246,47
565,68	250,11
565,921	247,7
566,163	247,66
566,404	245,59
566,646	248,39
566,887	250,47
567,129	251,41
567,37	251,62
567,612	253,3
567,853	253
568,094	255,37
568,336	256,76
568,577	257,87
568,818	259,81
569,06	258,75
569,301	257,37
569,542	260,78
569,783	264
570,025	265,79
570,266	266,34
570,507	267,49
570,748	267,61
570,989	267,92
571,23	271,86
571,472	272,41
571,713	272,78
571,954	274,99
572,195	272,71
572,436	273,98
572,677	277,13
572,918	279,35
573,159	277,42
573,4	276,27
573,641	276,78
573,882	278,54
574,123	274,41
574,364	270,2
574,604	271,16
574,845	269
575,086	269,16
575,327	269,53
575,568	268,18
575,809	267,22
576,049	266,14
576,29	262,25
576,531	267,75
576,771	271,65
577,012	273,85
577,253	274,98
577,494	274
577,734	274,23
577,975	275,28
578,215	274,81
578,456	273,64
578,697	272,82
578,937	275,24
579,178	275,3
579,418	273,31
579,659	272,32
579,899	268,49
580,14	266,85
580,38	266,04
580,62	265,38
580,861	269,87
581,101	270,92
581,342	271,31
581,582	269,5
581,822	272,01
582,063	270,35
582,303	270,42
582,543	270,66
582,783	271,19
583,024	272,81
583,264	275,41
583,504	273,53
583,744	275,46
583,984	272,46
584,224	270,44
584,465	268,82
584,705	267,65
584,945	268,88
585,185	268,07
585,425	268,3
585,665	268,27
585,905	267,53
586,145	268
586,385	265,67
586,625	267,23
586,865	265,95
587,105	265,9
587,345	267,1
587,585	268,05
587,824	266,86
588,064	266,25
588,304	264,19
588,544	264,23
588,784	262,01
589,024	264,17
589,263	262,56
589,503	259,89
589,743	262,59
589,982	262,32
590,222	261,89
590,462	259,05
590,701	257,17
590,941	260,15
591,181	258,95
591,42	258,3
591,66	261,15
591,899	262,74
592,139	261,82
592,378	261,33
592,618	260,03
592,857	259,57
593,097	261,2
593,336	261,06
593,576	259,71
593,815	261,12
594,055	260,23
594,294	262,48
594,533	261,72
594,773	261,43
595,012	261,36
595,251	262,47
595,491	266,61
595,73	267,99
595,969	269,12
596,208	270,29
596,447	275,53
596,687	277,51
596,926	280,76
597,165	277,97
597,404	279,97
597,643	276,99
597,882	276,93
598,121	277,01
598,36	278,42
598,599	279,6
598,838	279,54
599,077	276,32
599,316	277,07
599,555	275,5
599,794	276,72
600,033	278,67
600,272	278,91
600,511	276,53
600,75	277,67
600,989	279,67
601,228	280,3
601,466	279,73
601,705	279,46
601,944	280,61
602,183	283,71
602,422	284,2
602,66	282,26
602,899	280,7
603,138	280,7
603,376	279,36
603,615	280,31
603,854	277,15
604,092	276,85
604,331	277,23
604,569	278,17
604,808	276,84
605,047	280,07
605,285	279,27
605,524	279,6
605,762	275,83
606	276,7
606,239	276,89
606,477	275,13
606,716	270,37
606,954	270,41
607,193	265,29
607,431	260,05
607,669	258,14
607,908	256,27
608,146	258,76
608,384	256,2
608,622	253,92
608,861	253,53
609,099	253,64
609,337	251,65
609,575	248,49
609,813	247,94
610,052	247,07
610,29	241,32
610,528	238,01
610,766	237,18
611,004	235,06
611,242	234,23
611,48	232,64
611,718	228,9
611,956	227,48
612,194	224,56
612,432	222,17
612,67	221,3
612,908	220,22
613,146	218,55
613,384	218,3
613,621	216,02
613,859	216,54
614,097	215,52
614,335	214,46
614,573	216,73
614,811	219,41
615,048	218,98
615,286	219,18
615,524	215,95
615,761	214,15
615,999	213,63
616,237	212,58
616,474	212,71
616,712	212,7
616,95	211,42
617,187	209,81
617,425	211,03
617,662	212,73
617,9	211,15
618,137	207,25
618,375	205,2
618,612	200,77
618,85	201,62
619,087	202,99
619,325	201,86
619,562	200,16
619,799	198,55
620,037	197,16
620,274	196,39
620,511	197,4
620,749	192,44
620,986	190,74
621,223	188,86
621,461	187,92
621,698	188,26
621,935	185,53
622,172	183,22
622,409	182,96
622,647	181,45
622,884	178,52
623,121	179,45
623,358	176,64
623,595	175,35
623,832	174,09
624,069	171,69
624,306	171,23
624,543	171,24
624,78	170,3
625,017	169,23
625,254	171,04
625,491	173,76
625,728	175,68
625,965	177,22
626,202	176,23
626,438	173,93
626,675	172,2
626,912	173,16
627,149	172,86
627,386	171,17
627,622	169,08
627,859	167,74
628,096	167,69
628,333	167,49
628,569	167,29
628,806	169,65
629,043	168,93
629,279	171,04
629,516	170,67
629,752	166,83
629,989	167,67
630,225	165,38
630,462	163,94
630,699	163,66
630,935	161,99
631,171	160,16
631,408	160,16
631,644	158,43
631,881	155,15
632,117	152,71
632,354	153
632,59	151,07
632,826	148,57
633,063	146,81
633,299	145,8
633,535	142,34
633,771	140,38
634,008	141,82
634,244	141,1
634,48	139,86
634,716	141,62
634,953	139,89
635,189	139,44
635,425	140,94
635,661	143,03
635,897	141,08
636,133	139,39
636,369	138,23
636,605	132,87
636,841	133,18
637,077	135,14
637,313	133,92
637,549	135,77
637,785	134,6
638,021	134,64
638,257	133,19
638,493	134,34
638,729	131,34
638,965	133,71
639,2	135,33
639,436	133,54
639,672	132,04
639,908	129,31
640,144	134,16
640,379	136,17
640,615	134,39
640,851	135,91
641,086	136,37
641,322	134,71
641,558	134,49
641,793	135,08
642,029	131,64
642,264	129,8
642,5	128,71
642,736	124,18
642,971	124,16
643,207	121,13
643,442	117,49
643,678	116,01
643,913	116,86
644,148	114,95
644,384	116,64
644,619	115,9
644,855	115,89
645,09	116,08
645,325	115,72
645,561	115,28
645,796	111,3
646,031	115,82
646,266	112,82
646,502	110,25
646,737	111,45
646,972	110,86
647,207	111,22
647,442	105,79
647,678	101,63
647,913	103,8
648,148	104,34
648,383	103,11
648,618	102,6
648,853	102,27
649,088	103,96
649,323	105,96
649,558	106,81
649,793	107,59
650,028	108,9
650,263	104,47
650,498	107,95
650,733	107,78
650,968	107,08
651,202	108,52
651,437	106,02
651,672	100,49
651,907	98,52
652,142	98,04
652,376	97,31
652,611	97,59
652,846	99,61
653,081	99,46
653,315	96,65
653,55	96,32
653,785	95,88
654,019	97,44
654,254	94,86
654,488	95,78
654,723	91,99
654,958	90,77
655,192	87,44
655,427	82,77
655,661	84,6
655,896	87,38
656,13	88,69
656,364	83,68
656,599	82,03
656,833	90,37
657,068	91,7
657,302	90,77
657,536	89,09
657,771	89,33
658,005	89,91
658,239	91,69
658,474	88,42
658,708	88,88
658,942	89,59
659,176	88,06
659,41	84,01
659,645	82,98
659,879	84,19
660,113	79,99
660,347	79,14
660,581	76,94
660,815	75,77
661,049	73,27
661,283	70,39
661,517	69,72
661,751	66,68
661,985	67,08
662,219	67,62
662,453	66,32
662,687	69,18
662,921	64,67
663,155	61,86
663,389	55,44
663,622	54,84
663,856	56,71
664,09	48,12
664,324	47,35
664,558	47,67
664,791	47,25
665,025	46,24
665,259	46,22
665,492	44,05
665,726	46,72
665,96	46,91
666,193	45,07
666,427	46,06
666,661	46,65
666,894	44,98
667,128	41,58
667,361	43,87
667,595	42,54
667,828	41,59
668,062	40,18
668,295	41,11
668,529	40,42
668,762	40,14
668,995	41,31
669,229	45,17
669,462	45,9
669,695	46,53
669,929	43,14
670,162	43,52
670,395	41,54
670,629	43,09
670,862	45,88
671,095	42,58
671,328	41,85
671,561	37,7
671,795	38,8
672,028	39,82
672,261	40,12
672,494	41,31
672,727	39,99
672,96	39,71
673,193	38,14
673,426	41,68
673,659	41,82
673,892	41,93
674,125	40,39
674,358	40,08
674,591	38,48
674,824	38,1
675,057	38,59
675,29	37,78
675,523	38,7
675,755	38,06
675,988	39,91
676,221	40,93
676,454	37,42
676,687	38,63
676,919	37,86
677,152	38,75
677,385	39,69
677,617	40,52
677,85	41,7
678,083	38,86
678,315	40,3
678,548	39,38
678,78	38,96
679,013	37,23
679,246	37,81
679,478	37,18
679,711	34,28
679,943	34,87
680,175	33,12
680,408	36,97
680,64	33,09
680,873	33,94
681,105	34,43
681,338	38,91
681,57	39,02
681,802	40,29
682,034	41,54
682,267	44,22
682,499	46,9
682,731	45,02
682,964	43,62
683,196	40,35
683,428	38,49
683,66	38,72
683,892	40,25
684,124	42,5
684,356	44,31
684,589	43,87
684,821	41,96
685,053	41,6
685,285	40,62
685,517	41,86
685,749	42,69
685,981	43,65
686,213	43,75
686,445	44,06
686,676	42,1
686,908	43,53
687,14	42,99
687,372	44,07
687,604	39,51
687,836	40,15
688,068	38,94
688,299	38,36
688,531	35,51
688,763	39,05
688,995	36,8
689,226	38,97
689,458	36,82
689,69	35
689,921	33,19
690,153	33,6
690,384	35,23
690,616	34,64
690,848	34,24
691,079	31,05
691,311	27,85
691,542	25,68
691,774	23,61
692,005	27,16
692,237	29,91
692,468	29,24
692,699	27,4
692,931	26,6
693,162	24,83
693,393	23,82
693,625	22,26
693,856	23,51
694,087	22,88
694,319	23,19
694,55	23,27
694,781	23,03
695,012	23,42
695,243	22,44
695,475	21,15
695,706	20,49
695,937	18,93
696,168	18,57
696,399	15,89
696,63	15,43
696,861	15,35
697,092	20,74
697,323	23,19
697,554	24,54
697,785	25,77
698,016	27,4
698,247	25,24
698,478	26,48
698,709	27,34
698,94	28,55
699,171	27,19
699,401	23,3
699,632	24,84
699,863	22,25
700,094	22,38
700,325	24,81
700,555	26,96
700,786	27,53
701,017	27,13
701,247	26,9
701,478	27,03
701,709	25,84
701,939	25,63
702,17	26,42
702,401	29,19
702,631	30,51
702,862	30,32
703,092	25,39
703,323	28,83
703,553	31,31
703,784	29,56
704,014	29,14
704,244	23,62
704,475	23,48
704,705	21,95
704,936	21,54
705,166	19,44
705,396	21,12
705,627	21,21
705,857	20,75
706,087	22,18
706,317	19,52
706,548	18,41
706,778	18,35
707,008	19,19
707,238	19,13
707,468	18,15
707,698	14,52
707,928	14,1
708,158	12,77
708,389	11,29
708,619	10,32
708,849	8,56
709,079	9,79
709,309	8,63
709,539	5,06
709,768	5,13
709,998	6,07
710,228	7,13
710,458	4,55
710,688	0,01
710,918	1,11
711,148	1,03
711,378	1,84
711,607	-0,66
711,837	0,23
712,067	0,05
712,297	0,01
712,526	-0,49
712,756	1,12
712,986	-1,25
713,215	-3,24
713,445	-1,78
713,674	-1,29
713,904	-1,28
714,134	2,05
714,363	2,77
714,593	1,16
714,822	1,3
715,052	0
715,281	0,77
715,511	0,06
715,74	-0,73
715,969	-1,12
716,199	-2,62
716,428	-3,29
716,657	-2,36
716,887	-0,23
717,116	-2,63
717,345	-0,63
717,575	-0,51
717,804	1,32
718,033	0,44
718,262	-0,48
718,492	0,79
718,721	1,24
718,95	0,4
719,179	-2,06
719,408	-1,36
719,637	-3,84
719,866	-7,03
720,095	-5,46
720,324	-6,51
720,553	-9,02
720,782	-10,57
721,011	-12
721,24	-14
721,469	-14,4
721,698	-14,11
721,927	-14,85
722,156	-15,77
722,385	-16,14
722,613	-12,41
722,842	-11,51
723,071	-7,95
723,3	-5,63
723,529	-5,56
723,757	-5,64
723,986	-9,22
724,215	-9,22
724,443	-8,16
724,672	-5,86
724,901	-5,54
725,129	-3,53
725,358	-0,11
725,586	-2,25
725,815	-1,77
726,043	-1,87
726,272	-2,33
726,5	-2,47
726,729	-0,36
726,957	-3,33
727,186	-4,21
727,414	-3,2
727,642	-2,84
727,871	-0,16
728,099	0,75
728,327	-0,8
728,556	-0,63
728,784	0,85
729,012	0,66
729,241	3,67
729,469	3,78
729,697	0,48
729,925	1,91
730,153	0,86
730,381	0,46
730,61	0,38
730,838	-0,96
731,066	0,22
731,294	1,55
731,522	-1,15
731,75	-5,5
731,978	-5,72
732,206	-6,67
732,434	-9,91
732,662	-8,34
732,89	-10,33
733,118	-11,04
733,346	-11,12
733,573	-10,96
733,801	-11,57
734,029	-3,66
734,257	-2,23
734,485	0,43
734,712	2,44
734,94	-0,17
735,168	3,31
735,396	3,63
735,623	3,02
735,851	4,44
736,078	7,8
736,306	7,7
736,534	6,11
736,761	6,52
736,989	3,59
737,216	2,36
737,444	0,39
737,671	2,21
737,899	6,12
738,126	5,84
738,354	5,16
738,581	5,39
738,809	7,32
739,036	4,97
739,263	5,39
739,491	4,04
739,718	3,76
739,945	8,02
740,173	9,25
740,4	10,36
740,627	9,66
740,854	9,13
741,081	5,52
741,309	2,96
741,536	-1,1
741,763	-1,95
741,99	-0,06
742,217	-0,94
742,444	-1,17
742,671	0,33
742,898	-0,23
743,125	-5,3
743,352	-7,59
743,579	-7,08
743,806	-6,58
744,033	-4,43
744,26	-4,71
744,487	-6,07
744,714	-7,89
744,941	-8,93
745,167	-6,45
745,394	-7,96
745,621	-8,92
745,848	-8,83
746,075	-6,89
746,301	-3,47
746,528	1,45
746,755	-1,05
746,981	-2,15
747,208	-0,8
747,435	-0,43
747,661	-0,99
747,888	0,53
748,114	-1,39
748,341	1,86
748,567	4,64
748,794	2,34
749,02	1,94
749,247	-1,34
749,473	-1,4
749,7	-2,08
749,926	-3,72
750,152	1,67
750,379	2,33
750,605	4,21
750,831	3,6
751,058	2,02
751,284	0,72
751,51	4,47
751,737	7,29
751,963	6,12
752,189	5,61
752,415	5,49
752,641	6,72
752,867	6,15
753,094	4,77
753,32	3,1
753,546	1,32
753,772	3,53
753,998	3,29
754,224	2,87
754,45	2,94
754,676	2,9
754,902	1,82
755,128	2,01
755,354	0,86
755,579	2,67
755,805	5,25
756,031	3,6
756,257	2,51
756,483	1,55
756,709	-1,16
756,934	-0,58
757,16	-3,88
757,386	-2,94
757,612	-5,84
757,837	-7,17
758,063	-3,93
758,289	-0,46
758,514	-2,02
758,74	-5,25
758,965	-8,31
759,191	-7,41
759,416	-4,76
759,642	-3,35
759,868	-3,24
760,093	-0,77
760,318	-3,54
760,544	-4,43
760,769	-5,72
760,995	-7,7
761,22	-8,61
761,445	-6,69
761,671	-4,28
761,896	-1,73
762,121	-0,94
762,347	-0,22
762,572	-4,39
762,797	-3,9
763,022	-3,13
763,248	2,85
763,473	4,12
763,698	2,74
763,923	2,31
764,148	2,49
764,373	1,82
764,598	3,72
764,823	5,81
765,048	1,07
765,273	-1,81
765,498	-2,06
765,723	-2,99
765,948	-0,68
766,173	-2,28
766,398	-2,18
766,623	-4,54
766,848	-5,23
767,073	-7,64
767,298	-7,4
767,522	-7,39
767,747	-4,87
767,972	-3,55
768,197	-2,69
768,421	-4,25
768,646	-7,74
768,871	-10,77
769,095	-11,82
769,32	-11,07
769,545	-9,98
769,769	-10,06
769,994	-8,9
770,218	-12,14
770,443	-11,85
770,667	-9,74
770,892	-8,34
771,116	-8,83
771,341	-8,22
771,565	-9,96
771,79	-10,43
772,014	-10,6
772,238	-11,63
772,463	-9,67
772,687	-8,61
772,911	-8,83
773,136	-11,39
773,36	-10,22
773,584	-7,57
773,808	-10,12
774,033	-8,98
774,257	-8,15
774,481	-9,1
774,705	-10
774,929	-9,67
775,153	-11,52
775,377	-9,41
775,602	-9,38
775,826	-7,42
776,05	-4,53
776,274	-6,15
776,498	-7,18
776,722	-8,82
776,945	-8,64
777,169	-7,89
777,393	-8,92
777,617	-9,05
777,841	-9,89
778,065	-8,26
778,289	-9,55
778,512	-9,55
778,736	-8,57
778,96	-6,08
779,184	-3,5
779,407	-3,73
779,631	-3,48
779,855	-6,06
780,078	-3,58
780,302	-6,66
780,526	-10,68
780,749	-7,64
780,973	-5,84
781,196	-6,47
781,42	-8,6
781,643	-7,47
781,867	-8,16
782,09	-8,95
782,314	-10,6
782,537	-10,86
782,76	-12,16
782,984	-11,1
783,207	-10,99
783,431	-9,83
783,654	-10,31
783,877	-12,5
784,1	-14,59
784,324	-14,72
784,547	-15,5
784,77	-18,94
784,993	-19,94
785,216	-20,08
785,44	-18,19
785,663	-20,52
785,886	-19,13
786,109	-19,97
786,332	-21,32
786,555	-20,91
786,778	-16,99
787,001	-16,64
787,224	-14,64
787,447	-12,84
787,67	-11,85
787,893	-11,89
788,116	-9,81
788,339	-8,24
788,561	-10,67
788,784	-13,53
789,007	-14,79
789,23	-15,98
789,453	-14,82
789,675	-16,83
789,898	-19,61
790,121	-22,24
790,344	-22,8
790,566	-22,19
790,789	-21,43
791,012	-20,97
791,234	-18,1
791,457	-13,91
791,679	-11,41
791,902	-11,26
792,124	-11,23
792,347	-13,55
792,569	-13,03
792,792	-15,85
793,014	-13,29
793,237	-11,71
793,459	-9,99
793,681	-11,11
793,904	-12,04
794,126	-13
794,348	-13,77
794,571	-14,19
794,793	-16,39
795,015	-17,62
795,237	-17,25
795,46	-15,33
795,682	-14,49
795,904	-11,42
796,126	-13,17
796,348	-13,47
796,57	-9,68
796,792	-9,5
797,014	-4,89
797,237	-3,54
797,459	-0,21
797,681	1,66
797,903	0,16
798,124	-0,03
798,346	11,42
798,568	13,08
798,79	16,66
799,012	17,22
799,234	19,3
799,456	21,91
799,678	23,38
799,899	20
800,121	16,81
800,343	15,36
800,565	16,47
800,786	17,26
801,008	17,95
801,23	18
801,451	19,17
801,673	17,37
801,895	17,66
802,116	20,1
802,338	20,11
802,559	21,06
802,781	19,09
803,002	22,18
803,224	22,99
803,445	21,07
803,667	22,24
803,888	19,06
804,109	18,98
804,331	17,63
804,552	17,14
804,773	19,68
804,995	16,6
805,216	1,63
805,437	-1,49
805,658	-4,42
805,88	-5,79
806,101	-4,42
806,322	-6,57
806,543	-6,53
806,764	-7,85
806,985	-5,77
807,207	-5,02
807,428	-4,27
807,649	-8,51
807,87	-10,31
808,091	-9,41
808,312	-9,23
808,533	-3,19
808,754	-1,35
808,975	-4,37
809,195	-2,18
809,416	-2,12
809,637	-2,29
809,858	-3,51
810,079	-4,51
810,3	-3,4
810,52	-3,34
810,741	-4,78
810,962	-6,08
811,183	-6,16
811,403	-6,93
811,624	-7,61
811,845	-5,37
812,065	-3,08
812,286	-1,35
812,506	-1,57
812,727	-0,82
812,948	-1,76
813,168	0,5
813,389	-1,42
813,609	0,79
813,83	0,15
814,05	-0,97
814,27	-2,23
814,491	3,37
814,711	3,52
814,931	1,97
815,152	0,75
815,372	-2,24
815,592	-3,19
815,813	-3,99
816,033	-6,23
816,253	-5,26
816,473	-5,68
816,694	-6,15
816,914	-4,25
817,134	-4,83
817,354	-7,25
817,574	-4,88
817,794	-4,65
818,014	-7,68
818,234	-8,13
818,454	-9,24
818,674	-10,42
818,894	-13,71
819,114	-11,52
819,334	-11,88
819,554	-9,82
819,774	-6,57
819,994	-9,84
820,214	-10,12
820,433	-8,68
820,653	-8,52
820,873	-6,34
821,093	-5,55
821,312	-9,54
821,532	-7,17
821,752	-5,94
821,972	-7,28
822,191	-4,74
822,411	-7,04
822,63	-5,91
822,85	-5,32
823,07	-7,86
823,289	-6,94
823,509	-7,56
823,728	-6,52
823,948	-7,56
824,167	-7,16
824,387	-8,95
824,606	-7,94
824,825	-7,5
825,045	-6,83
825,264	-7,72
825,483	-8,15
825,703	-6,11
825,922	-9,55
826,141	-9,35
826,361	-10,14
826,58	-15,55
826,799	-16,03
827,018	-14,47
827,237	-15,36
827,456	-12,9
827,676	-12,82
827,895	-12,84
828,114	-10,66
828,333	-12,45
828,552	-12,69
828,771	-10,44
828,99	-14,13
829,209	-14,49
829,428	-11,08
829,647	-11,07
829,866	-9,27
830,084	-9,55
830,303	-8,78
830,522	-10,38
830,741	-9,7
830,96	-9,17
831,179	-7,75
831,397	-9
831,616	-9,41
831,835	-9,68
832,053	-8,9
832,272	-7,39
832,491	-5,77
832,709	-6,39
832,928	-6,05
833,147	-6,42
833,365	-4,72
833,584	-1,48
833,802	1
834,021	1,03
834,239	-0,07
834,458	-2,08
834,676	-6,2
834,894	-6,46
835,113	-5,79
835,331	-5,72
835,55	-8,07
835,768	-7,78
835,986	-5,7
836,204	-9,06
836,423	-8,95
836,641	-11,15
836,859	-12,06
837,077	-11,79
837,296	-12,06
837,514	-12,63
837,732	-13,33
837,95	-15,67
838,168	-12,6
838,386	-11,73
838,604	-10,06
838,822	-8,6
839,04	-10,07
839,258	-10,63
839,476	-7,98
839,694	-8,05
839,912	-8,58
840,13	-9,09
840,348	-6,04
840,566	-9,86
840,783	-7,99
841,001	-9,7
841,219	-8,28
841,437	-6,27
841,655	-5,76
841,872	-7,27
842,09	-7,01
842,308	-4,74
842,525	-4,35
842,743	-2,99
842,961	-2,72
843,178	-4,83
843,396	-0,05
843,613	1,08
843,831	2,41
844,048	2,43
844,266	1,98
844,483	2,08
844,701	1,67
844,918	0,27
845,136	-0,01
845,353	-1,27
845,57	-0,74
845,788	2,2
846,005	0,12
846,222	-1,78
846,439	-1,09
846,657	-0,67
846,874	-0,8
847,091	-4,13
847,308	-2,2
847,526	-3,26
847,743	-2,27
847,96	-4,89
848,177	-3,93
848,394	-5,77
848,611	-6,07
848,828	-7,46
849,045	-8,64
849,262	-8,48
849,479	-9,01
849,696	-10,3
849,913	-11,82
850,13	-16,69
850,347	-13,46
850,564	-14,96
850,78	-16,09
850,997	-17,89
851,214	-17,31
851,431	-16,06
851,647	-19,24
851,864	-18,64
852,081	-17,38
852,298	-21,26
852,514	-23,13
852,731	-20,75
852,948	-18,65
853,164	-18,02
853,381	-18,12
853,597	-18,18
853,814	-20,67
854,03	-23,58
854,247	-22,03
854,463	-22,56
854,68	-22,53
854,896	-21,68
855,113	-21,26
855,329	-19,44
855,545	-17,24
855,762	-17,55
855,978	-19,71
856,194	-21,68
856,411	-19,2
856,627	-16,61
856,843	-16,32
857,059	-15,23
857,275	-15,55
857,492	-13,37
857,708	-10,52
857,924	-10,03
858,14	-8,16
858,356	-6,84
858,572	-7,49
858,788	-10,19
859,004	-8,26
859,22	-9,52
859,436	-10,27
859,652	-11,62
859,868	-13,04
860,084	-13,67
860,3	-14,37
860,516	-13,68
860,731	-12,44
860,947	-16,18
861,163	-14,63
861,379	-13,31
861,595	-12,31
861,81	-10,87
862,026	-10,43
862,242	-10,59
862,457	-11,05
862,673	-9,35
862,889	-10,09
863,104	-10,97
863,32	-11,17
863,535	-9,94
863,751	-14,67
863,966	-12,21
864,182	-12,53
864,397	-12,6
864,613	-14,73
864,828	-15,6
865,044	-14,19
865,259	-11,91
865,474	-10,79
865,69	-8,61
865,905	-7,5
866,12	-9,83
866,336	-10,97
866,551	-9,57
866,766	-9,67
866,981	-9,39
867,196	-8,64
867,412	-7,93
867,627	-6,66
867,842	-7,63
868,057	-8,35
868,272	-9,06
868,487	-10,81
868,702	-12,92
868,917	-13,77
869,132	-11,96
869,347	-11,55
869,562	-11,54
869,777	-10,48
869,992	-10,23
870,207	-10,23
870,422	-10,72
870,636	-13,02
870,851	-13,95
871,066	-16,89
871,281	-16,1
871,495	-17,03
871,71	-14,8
871,925	-18,29
872,14	-17,63
872,354	-20,09
872,569	-21,6
872,783	-19,12
872,998	-18,17
873,213	-19,66
873,427	-17,9
873,642	-18,02
873,856	-18,62
874,071	-20,02
874,285	-22,46
874,5	-24,92
874,714	-26,19
874,928	-27,8
875,143	-27,89
875,357	-28,01
875,571	-28,73
875,786	-28,46
876	-25,59
876,214	-23,22
876,429	-26,23
876,643	-26,08
876,857	-24,18
877,071	-22,16
877,285	-22,35
877,499	-24,44
877,714	-19,49
877,928	-17,98
878,142	-19,96
878,356	-22,85
878,57	-20,87
878,784	-21,46
878,998	-21,78
879,212	-18,83
879,426	-21,94
879,639	-21,27
879,853	-21,79
880,067	-22,55
880,281	-21,66
880,495	-19,71
880,709	-15,75
880,922	-14,3
881,136	-11,91
881,35	-8,45
881,564	-8,26
881,777	-9,12
881,991	-7,37
882,205	-3,57
882,418	-4,12
882,632	-7,53
882,845	-8,42
883,059	-6,73
883,273	-7,32
883,486	-9,38
883,7	-8,12
883,913	-8,42
884,126	-7,61
884,34	-12,29
884,553	-12,45
884,767	-8,02
884,98	-8,17
885,193	-9,63
885,407	-11,27
885,62	-9,12
885,833	-8,54
886,046	-6,22
886,26	-6,84
886,473	-6,01
886,686	-7,25
886,899	-6,78
887,112	-8,65
887,326	-13,06
887,539	-10,71
887,752	-9,29
887,965	-12,71
888,178	-11,22
888,391	-11,27
888,604	-11,63
888,817	-14,18
889,03	-13,85
889,243	-14,39
889,455	-17,5
889,668	-17,57
889,881	-15,14
890,094	-15,29
890,307	-18,65
890,52	-17,1
890,732	-15,13
890,945	-14,43
891,158	-15,19
891,37	-17,21
891,583	-16,2
891,796	-14,4
892,008	-15,18
892,221	-17,54
892,434	-22,48
892,646	-23
892,859	-24,48
893,071	-24,16
893,284	-21,3
893,496	-21,87
893,709	-20,7
893,921	-18,88
894,133	-21,28
894,346	-22,76
894,558	-22,53
894,771	-23,64
894,983	-21,5
895,195	-21,04
895,407	-20,53
895,62	-23,2
895,832	-22,83
896,044	-19,42
896,256	-19,2
896,468	-20,79
896,681	-20,1
896,893	-17,01
897,105	-15,96
897,317	-16,71
897,529	-15
897,741	-13,97
897,953	-11,08
898,165	-13,59
898,377	-15,22
898,589	-12,81
898,801	-12,56
899,013	-9,49
899,224	-6,8
899,436	-4,08
899,648	-5,02
899,86	-7,52
900,072	-4,28
900,283	-3,28
900,495	-2,8
900,707	-0,93
900,919	-3,73
901,13	-2,21
901,342	-4,86
901,554	-6,01
901,765	-5,7
901,977	-8,39
902,188	-7,71
902,4	-8,04
902,611	-9,92
902,823	-11,74
903,034	-13,29
903,246	-13,77
903,457	-15,63
903,669	-18,16
903,88	-18,38
904,091	-18,71
904,303	-18,97
904,514	-21,22
904,725	-18,57
904,936	-17,75
905,148	-17,7
905,359	-15,98
905,57	-15,82
905,781	-17,62
905,992	-18,36
906,204	-17,25
906,415	-16,2
906,626	-19,72
906,837	-18,18
907,048	-18,24
907,259	-19,18
907,47	-19,62
907,681	-19,86
907,892	-15,68
908,103	-15,29
908,314	-18,66
908,525	-15,55
908,735	-15,25
908,946	-16,5
909,157	-17,24
909,368	-15,14
909,579	-14,39
909,789	-16,57
910	-19,05
910,211	-16,42
910,421	-16,88
910,632	-16,62
910,843	-19,28
911,053	-17,25
911,264	-14,89
911,475	-15,67
911,685	-15,37
911,896	-15,21
912,106	-15,31
912,317	-17,91
912,527	-15,68
912,737	-16,44
912,948	-16,77
913,158	-15,87
913,369	-19,34
913,579	-17,39
913,789	-17,77
914	-13,45
914,21	-14,52
914,42	-14,91
914,63	-15,32
914,841	-12,99
915,051	-12,05
915,261	-12,13
915,471	-9,64
915,681	-9,35
915,891	-9,83
916,101	-10,37
916,311	-10,27
916,521	-7,01
916,731	-7,26
916,941	-3,83
917,151	-4,16
917,361	-0,24
917,571	-3,58
917,781	-6,3
917,991	-8,57
918,201	-8,27
918,411	-9,85
918,621	-10,31
918,83	-8,41
919,04	-10,77
919,25	-8,82
919,46	-5,18
919,669	-7,79
919,879	-7,53
920,089	-10,06
920,298	-10,8
920,508	-12,49
920,717	-11,12
920,927	-13,3
921,136	-12,43
921,346	-14,32
921,555	-17,35
921,765	-16,11
921,974	-17,92
922,184	-18,92
922,393	-19,36
922,603	-20,8
922,812	-18,46
923,021	-19,47
923,23	-20,58
923,44	-24,9
923,649	-25,09
923,858	-26,99
924,067	-25,93
924,277	-27,8
924,486	-24,48
924,695	-25,96
924,904	-25,8
925,113	-26,27
925,322	-24,97
925,531	-25,08
925,74	-27,15
925,949	-30,73
926,158	-28,74
926,367	-29,55
926,576	-28,67
926,785	-29,06
926,994	-29,88
927,203	-29,14
927,412	-29,78
927,621	-30,17
927,83	-27,75
928,038	-29,12
928,247	-29,8
928,456	-29,59
928,665	-28,86
928,873	-26,75
929,082	-23,96
929,291	-21,46
929,499	-20,54
929,708	-22,71
929,916	-22,42
930,125	-23,28
930,333	-24,97
930,542	-22,15
930,75	-18,58
930,959	-18,46
931,167	-18,44
931,376	-18,42
931,584	-15,82
931,793	-15,38
932,001	-15,37
932,209	-17,62
932,418	-18,19
932,626	-19,17
932,834	-19,67
933,042	-22,04
933,251	-21,96
933,459	-21,43
933,667	-22,92
933,875	-22,68
934,083	-21,79
934,291	-20,53
934,499	-17,9
934,707	-19,22
934,915	-18,85
935,123	-17,33
935,331	-19,76
935,539	-21,81
935,747	-26,75
935,955	-27,07
936,163	-25,2
936,371	-23,92
936,579	-22,61
936,787	-21,78
936,995	-24,61
937,202	-27,2
937,41	-26,34
937,618	-26,64
937,826	-25,95
938,033	-31,37
938,241	-33,25
938,449	-30,96
938,656	-27,64
938,864	-28,29
939,071	-28,22
939,279	-26,49
939,486	-23,89
939,694	-24,08
939,901	-24,52
940,109	-23,86
940,316	-23,51
940,524	-24,74
940,731	-26,2
940,939	-25,53
941,146	-24,76
941,353	-24,92
941,561	-24,76
941,768	-25,14
941,975	-24,19
942,182	-22,28
942,39	-23,28
942,597	-19,87
942,804	-21,49
943,011	-22,27
943,218	-22,13
943,425	-22,78
943,632	-21,76
943,839	-23,68
944,046	-24,27
944,253	-25,18
944,46	-23,48
944,667	-20,21
944,874	-20,42
945,081	-19,96
945,288	-18,39
945,495	-15,54
945,702	-15,35
945,909	-17,79
946,115	-15,82
946,322	-16,47
946,529	-18,02
946,736	-18,26
946,942	-16,68
947,149	-17,77
947,356	-19,24
947,562	-20,52
947,769	-20,67
947,976	-21,1
948,182	-19
948,389	-19,09
948,595	-19,03
948,802	-18,09
949,008	-21,24
949,215	-19,75
949,421	-21,02
949,628	-20,94
949,834	-19,74
950,04	-21,29
950,247	-17,69
950,453	-16,15
950,659	-17,45
950,865	-14,92
951,072	-18,42
951,278	-17,18
951,484	-17,2
951,69	-19,87
951,896	-22,2
952,103	-22,1
952,309	-18,81
952,515	-19,52
952,721	-17,95
952,927	-14,88
953,133	-15,98
953,339	-17,46
953,545	-17,94
953,751	-17,8
953,957	-14,86
954,163	-16,48
954,369	-15,89
954,574	-17,39
954,78	-18,13
954,986	-16,41
955,192	-14,58
955,398	-15,62
955,603	-18,21
955,809	-15,29
956,015	-14,18
956,22	-13,16
956,426	-10,6
956,632	-13,38
956,837	-14,04
957,043	-13,89
957,248	-14,06
957,454	-13,56
957,66	-16,94
957,865	-17,94
958,07	-16,69
958,276	-15,96
958,481	-17,81
958,687	-20,34
958,892	-19,43
959,097	-19,22
959,303	-19,98
959,508	-19,1
959,713	-18,92
959,919	-19,1
960,124	-19,83
960,329	-20,33
960,534	-17,14
960,739	-16,91
960,945	-14,76
961,15	-14,32
961,355	-15,69
961,56	-19,6
961,765	-19,91
961,97	-18,66
962,175	-17,66
962,38	-21,3
962,585	-22,33
962,79	-25,44
962,995	-27,25
963,2	-28,07
963,404	-27,47
963,609	-29,99
963,814	-30,81
964,019	-32,69
964,224	-35,68
964,428	-34,4
964,633	-34,83
964,838	-33,23
965,042	-32,79
965,247	-35,16
965,452	-35,79
965,656	-35,49
965,861	-34,99
966,066	-36,73
966,27	-33,85
966,475	-29,91
966,679	-32,97
966,884	-32,21
967,088	-34,72
967,292	-35,57
967,497	-35,08
967,701	-35,84
967,906	-32,98
968,11	-30,18
968,314	-26,46
968,518	-28,48
968,723	-25,45
968,927	-23,75
969,131	-22,94
969,335	-19,97
969,539	-19,23
969,744	-17,27
969,948	-14,7
970,152	-14,28
970,356	-12,18
970,56	-11,61
970,764	-12,36
970,968	-9,38
971,172	-8,3
971,376	-6,83
971,58	-5,54
971,784	-4,86
971,988	-6,3
972,192	-4,07
972,395	-2,92
972,599	-5,87
972,803	-6,61
973,007	-5,73
973,21	-7,03
973,414	-6,05
973,618	-6,43
973,822	-6,86
974,025	-6,52
974,229	-7,31
974,432	-9,77
974,636	-12,36
974,84	-10,72
975,043	-10,92
975,247	-12,45
975,45	-12,8
975,654	-12,01
975,857	-10,4
976,06	-11,23
976,264	-14,1
976,467	-12,99
976,671	-14,08
976,874	-12,1
977,077	-12,51
977,28	-14,7
977,484	-18,11
977,687	-19,58
977,89	-17,72
978,093	-17,45
978,297	-15,26
978,5	-17,3
978,703	-16,8
978,906	-15,23
979,109	-16,51
979,312	-14,2
979,515	-14,43
979,718	-16,27
979,921	-17,01
980,124	-17,99
980,327	-18,54
980,53	-18,54
980,733	-17,17
980,936	-14,79
981,138	-16,7
981,341	-15,77
981,544	-15,89
981,747	-16,07
981,949	-18
982,152	-17,9
982,355	-18,46
982,558	-13,99
982,76	-16,61
982,963	-17,22
983,165	-17,84
983,368	-18,34
983,571	-19,69
983,773	-16,77
983,976	-15,5
984,178	-15,4
984,381	-16,42
984,583	-20,62
984,785	-20,57
984,988	-18,14
985,19	-16,77
985,392	-19,21
985,595	-23,01
985,797	-21,72
985,999	-17,85
986,202	-15,28
986,404	-16,07
986,606	-13,98
986,808	-15,44
987,01	-14,41
987,212	-15,48
987,415	-16,44
987,617	-17,25
987,819	-17,4
988,021	-17,03
988,223	-18,36
988,425	-19,25
988,627	-18,92
988,829	-23,74
989,031	-20,33
989,232	-21,14
989,434	-18,39
989,636	-17,25
989,838	-17,29
990,04	-16,86
990,242	-18,84
990,443	-20,84
990,645	-17,74
990,847	-14,74
991,048	-15,5
991,25	-18,54
991,452	-20,23
991,653	-18,7
991,855	-17,25
992,057	-18,63
992,258	-18,68
992,46	-19,06
992,661	-16,87
992,863	-16,41
993,064	-15,66
993,265	-16,91
993,467	-17,67
993,668	-15,3
993,87	-13,3
994,071	-13,84
994,272	-13,6
994,473	-10,56
994,675	-9,53
994,876	-9,39
995,077	-8,34
995,278	-8,11
995,48	-5,45
995,681	-8,79
995,882	-8,59
996,083	-8,65
996,284	-11,93
996,485	-11,25
996,686	-11,23
996,887	-12,71
997,088	-16,59
997,289	-16,96
997,49	-16,57
997,691	-14,39
997,892	-15,03
998,092	-10,29
998,293	-10,53
998,494	-10,64
998,695	-11,91
998,896	-9,85
999,096	-12,3
999,297	-10,93
999,498	-12,22
999,698	-15,15
999,899	-17,25
1000,1	-20,28
1000,3	-19,6
1000,501	-19,47
1000,701	-21,61
1000,902	-22,63
1001,102	-21,6
1001,303	-19,36
1001,503	-22,17
1001,704	-21,29
1001,904	-21,08
1002,105	-20,21
1002,305	-19,61
1002,505	-19,73
1002,706	-20,4
1002,906	-21,04
1003,106	-22,89
1003,306	-20,51
1003,507	-18,4
1003,707	-19,47
1003,907	-18,5
1004,107	-17,87
1004,307	-19,73
1004,507	-17,48
1004,707	-17,39
1004,907	-18,35
1005,107	-19,45
1005,308	-18,17
1005,507	-19,79
1005,707	-17,62
1005,907	-17,03
1006,107	-15,31
1006,307	-14,22
1006,507	-14,5
1006,707	-13,51
1006,907	-12,23
1007,106	-12,48
1007,306	-14,41
1007,506	-14,27
1007,706	-13,4
1007,905	-17,01
1008,105	-16,61
1008,305	-17,08
1008,504	-16,2
1008,704	-10,7
1008,903	-9,66
1009,103	-8,33
1009,303	-9,6
1009,502	-9,1
1009,702	-10,29
1009,901	-8,89
1010,1	-12,5
1010,3	-10,16
1010,499	-13,39
1010,699	-16,04
1010,898	-18,83
1011,097	-18,49
1011,296	-19,09
1011,496	-19,47
1011,695	-19,55
1011,894	-21,04
1012,093	-17,61
1012,293	-17,97
1012,492	-18,12
1012,691	-19,46
1012,89	-19,72
1013,089	-22,97
1013,288	-21,84
1013,487	-20,88
1013,686	-20,77
1013,885	-22,42
1014,084	-19,58
1014,283	-19,24
1014,482	-21,27
1014,681	-21,23
1014,88	-24,75
1015,078	-23,07
1015,277	-26,39
1015,476	-26,3
1015,675	-26,59
1015,873	-25,29
1016,072	-27,35
1016,271	-25,66
1016,47	-30,14
1016,668	-27,5
1016,867	-27,44
1017,065	-27,86
1017,264	-29,14
1017,463	-29,79
1017,661	-30,1
1017,86	-29,86
1018,058	-29,02
1018,256	-30,66
1018,455	-31,78
1018,653	-31,49
1018,852	-29,22
1019,05	-31,71
1019,248	-32,88
1019,447	-34,31
1019,645	-34,71
1019,843	-38,08
1020,041	-35,84
1020,24	-38,56
1020,438	-35,32
1020,636	-35,52
1020,834	-38,58
1021,032	-37,89
1021,23	-39,68
1021,428	-36,8
1021,626	-33,02
1021,824	-32,77
1022,022	-34,41
1022,22	-30,91
1022,418	-29,74
1022,616	-29,92
1022,814	-30,73
1023,012	-30,61
1023,21	-28,6
1023,408	-28,16
1023,606	-27,56
1023,803	-22,79
1024,001	-22,48
1024,199	-26,01
1024,397	-25,73
1024,594	-25,17
1024,792	-26,99
1024,99	-27,21
1025,187	-25,15
1025,385	-20,09
1025,582	-20,04
1025,78	-20,74
1025,977	-20,01
1026,175	-20,86
1026,372	-18,2
1026,57	-19,88
1026,767	-15,88
1026,965	-13,47
1027,162	-12,32
1027,359	-12,72
1027,557	-11,9
1027,754	-16,09
1027,951	-15,85
1028,148	-14,24
1028,346	-16,33
1028,543	-19,19
1028,74	-18,42
1028,937	-20,32
1029,134	-20,08
1029,331	-20,46
1029,528	-19,84
1029,725	-21,44
1029,923	-25,64
1030,12	-22,08
1030,317	-20,21
1030,513	-18,06
1030,71	-16,35
1030,907	-12,35
1031,104	-12,77
1031,301	-14,94
1031,498	-15,6
1031,695	-15,96
1031,892	-15,21
1032,088	-12,89
1032,285	-15,01
1032,482	-16,96
1032,678	-20,24
1032,875	-23,76
1033,072	-24,07
1033,268	-24,33
1033,465	-24,08
1033,662	-26,52
1033,858	-25,95
1034,055	-26,84
1034,251	-25,2
1034,448	-25,35
1034,644	-23,6
1034,84	-21,69
1035,037	-20,1
1035,233	-21,78
1035,43	-19,93
1035,626	-20,69
1035,822	-21,19
1036,019	-20,46
1036,215	-24,98
1036,411	-25,71
1036,607	-28,34
1036,803	-31,81
1037	-33,84
1037,196	-35,69
1037,392	-34,2
1037,588	-36,39
1037,784	-34,88
1037,98	-35,54
1038,176	-37,71
1038,372	-36,52
1038,568	-34,82
1038,764	-33,69
1038,96	-31,42
1039,156	-32,22
1039,352	-33,25
1039,547	-32,76
1039,743	-30,72
1039,939	-29,1
1040,135	-29,1
1040,331	-30,08
1040,526	-29,4
1040,722	-29,91
1040,918	-31,26
1041,113	-34,3
1041,309	-33,68
1041,505	-37,17
1041,7	-37,09
1041,896	-35,2
1042,091	-36,32
1042,287	-34,98
1042,482	-33,59
1042,678	-33,64
1042,873	-32,1
1043,069	-32,89
1043,264	-31,59
1043,459	-31,77
1043,655	-30,1
1043,85	-31,31
1044,045	-30,3
1044,24	-29,06
1044,436	-27,86
1044,631	-28,79
1044,826	-28,07
1045,021	-30,44
1045,216	-30
