Data from mesure_FLMT021711__8__30.txt Node

Date: Mon Nov 04 11:51:37 CET 2024
User: jordan.swietlicki
Spectrometer: FLMT02171
Trigger mode: 0
Integration Time (sec): 1,000000E-1
Scans to average: 15
Electric dark correction enabled: true
Nonlinearity correction enabled: false
Boxcar width: 15
XAxis mode: Wavelengths
Number of Pixels in Spectrum: 3648
>>>>>Begin Spectral Data<<<<<
194,7	-40,971
194,9	-39,134
195,2	-35,331
195,5	-34,691
195,7	-30,275
196	-29,759
196,2	-28,875
196,5	-30,137
196,8	-30,008
197	-28,687
197,3	-28,354
197,6	-25,854
197,8	-26,114
198,1	-24,356
198,4	-22,956
198,6	-21,685
198,9	-18,038
199,2	-13,561
199,4	-9,107
199,7	-2,748
200	-2,722
200,2	-4,287
200,5	-4,687
200,7	-4,404
201	-3,212
201,3	-3,601
201,5	-3,035
201,8	-3,375
202,1	-2,718
202,3	-3,144
202,6	-2,33
202,9	-4,057
203,1	-3,375
203,4	-4,344
203,7	-4,151
203,9	-5,551
204,2	-4,344
204,5	-3,733
204,7	-3,111
205	-1,485
205,2	-0,346
205,5	0,684
205,8	0,491
206	4,225
206,3	4,481
206,6	5,341
206,8	5,224
207,1	5,477
207,4	6,914
207,6	9,916
207,9	10,214
208,2	10,338
208,4	10,995
208,7	10,399
208,9	11,319
209,2	10,599
209,5	10,934
209,7	10,708
210	10,931
210,3	11,123
210,5	13,763
210,8	12,658
211,1	13,292
211,3	13,88
211,6	12,831
211,9	12,349
212,1	11,772
212,4	11,398
212,6	11,327
212,9	12,228
213,2	10,293
213,4	10,463
213,7	10,644
214	11,519
214,2	7,951
214,5	7,744
214,8	7,657
215	7,616
215,3	10,78
215,5	11,33
215,8	8,826
216,1	7,944
216,3	9,399
216,6	8,781
216,9	9,486
217,1	10,271
217,4	10,32
217,7	10,41
217,9	9,018
218,2	8,864
218,5	8,506
218,7	6,952
219	7,238
219,2	8,445
219,5	8,434
219,8	9,795
220	10,259
220,3	10,587
220,6	11,066
220,8	10,12
221,1	10,188
221,4	10,206
221,6	9,486
221,9	9,671
222,1	8,351
222,4	8,804
222,7	10,112
222,9	7,533
223,2	6,541
223,5	4,515
223,7	5,077
224	4,625
224,2	4,259
224,5	3,75
224,8	4,183
225	4,595
225,3	4,523
225,6	4,587
225,8	5,7
226,1	6,824
226,4	6,303
226,6	5,149
226,9	5,568
227,1	6,02
227,4	4,791
227,7	3,399
227,9	2,882
228,2	3,422
228,5	2,826
228,7	1,46
229	1,675
229,3	2,55
229,5	6,416
229,8	6,345
230	6,571
230,3	5,289
230,6	5,262
230,8	3,957
231,1	5,322
231,4	5,036
231,6	8,92
231,9	8,2
232,1	9,456
232,4	9,354
232,7	9,486
232,9	9,886
233,2	9,094
233,5	8,174
233,7	8,781
234	6,959
234,2	5,492
234,5	7,072
234,8	9,501
235	8,634
235,3	8,736
235,6	9,58
235,8	10,199
236,1	11,364
236,4	10,949
236,6	12,888
236,9	14,381
237,1	15,517
237,4	15,072
237,7	11,085
237,9	9,927
238,2	7,329
238,5	8,8
238,7	8,856
239	8,189
239,2	7,069
239,5	8,822
239,8	5,635
240	4,787
240,3	6,092
240,6	6,043
240,8	4,508
241,1	4,085
241,3	3,867
241,6	3,671
241,9	1,649
242,1	2,615
242,4	4,372
242,7	2,95
242,9	2,577
243,2	2,728
243,4	2,747
243,7	2,241
244	0,932
244,2	1,17
244,5	1,163
244,8	1,404
245	1,136
245,3	2,283
245,5	1,717
245,8	2,434
246,1	2,445
246,3	3,599
246,6	3,259
246,9	4,338
247,1	4,938
247,4	6,752
247,6	7,748
247,9	7,302
248,2	7,574
248,4	5,066
248,7	5,213
248,9	6,111
249,2	5,786
249,5	6,175
249,7	5,99
250	5,507
250,3	5,251
250,5	4,018
250,8	5,722
251	4,704
251,3	6,333
251,6	7,566
251,8	7,842
252,1	7,578
252,4	4,9
252,6	5,062
252,9	3,391
253,1	3,041
253,4	0,891
253,7	1,596
253,9	3,033
254,2	3,723
254,4	3,237
254,7	3,606
255	4,576
255,2	5,617
255,5	4,308
255,8	3,011
256	3,701
256,3	3,935
256,5	4,485
256,8	4,282
257,1	4,7
257,3	3,701
257,6	4,293
257,8	5,545
258,1	7,344
258,4	8,211
258,6	8,743
258,9	7,895
259,2	6,82
259,4	5,681
259,7	2,784
259,9	0,932
260,2	2,645
260,5	4,172
260,7	3,425
261	3,173
261,2	2,603
261,5	2,818
261,8	2,392
262	3,075
262,3	2,916
262,6	3,244
262,8	2,471
263,1	1,208
263,3	-0,448
263,6	0,325
263,9	-0,587
264,1	-1,459
264,4	0,22
264,6	0,974
264,9	0,246
265,2	0,499
265,4	0,767
265,7	0,85
266	-0,652
266,2	0,416
266,5	-0,704
266,7	-2,654
267	-5,015
267,3	-3,918
267,5	-2,839
267,8	-0,372
268	0,891
268,3	0,197
268,6	-0,957
268,8	1,777
269,1	1,355
269,3	0,171
269,6	0,197
269,9	-0,127
270,1	-3,318
270,4	-2,979
270,6	-2,684
270,9	-2,533
271,2	-3,103
271,4	-4,864
271,7	-6,045
272	-6,271
272,2	-5,686
272,5	-8,089
272,7	-6,788
273	-5,437
273,3	-5,577
273,5	-2,975
273,8	-3,895
274	-2,975
274,3	-5,358
274,6	-4,936
274,8	-2,334
275,1	-0,229
275,3	0,895
275,6	0,593
275,9	-0,244
276,1	0,318
276,4	0,589
276,6	1,291
276,9	-0,018
277,2	1,638
277,4	2,773
277,7	5,613
277,9	5,96
278,2	7,702
278,5	8,739
278,7	9,075
279	7,725
279,2	8,128
279,5	9,426
279,8	10,463
280	11,406
280,3	10,003
280,5	9,249
280,8	7,476
281,1	6,616
281,3	7,8
281,6	5,598
281,9	6,446
282,1	6,363
282,4	6,273
282,6	6,914
282,9	6,571
283,2	6,288
283,4	4,719
283,7	3,886
283,9	3,188
284,2	3,309
284,5	2,445
284,7	1,706
285	0,846
285,2	-0,342
285,5	0,099
285,8	-2,379
286	1,279
286,3	2,792
286,5	1,291
286,8	1,049
287,1	2,626
287,3	2,249
287,6	1,755
287,8	2,056
288,1	0,442
288,4	1,178
288,6	4,183
288,9	4,255
289,1	4,104
289,4	1,819
289,7	2,897
289,9	1,856
290,2	3,569
290,4	5,141
290,7	3,557
290,9	2,154
291,2	2,897
291,5	4,583
291,7	5,583
292	7,695
292,2	7,14
292,5	9,018
292,8	10,848
293	10,237
293,3	10,55
293,5	12,556
293,8	12,767
294,1	10,949
294,3	8,721
294,6	9,592
294,8	10,078
295,1	10,316
295,4	9,694
295,6	9,988
295,9	10,448
296,1	10,278
296,4	10,693
296,7	7,193
296,9	7,359
297,2	5,553
297,4	6,944
297,7	5,681
298	6,639
298,2	4,84
298,5	5,869
298,7	6,959
299	8,358
299,3	7,291
299,5	4,613
299,8	4,451
300	4,251
300,3	4,18
300,5	4,018
300,8	2,23
301,1	4,304
301,3	5,553
301,6	2,954
301,8	0,427
302,1	-1,172
302,4	-0,335
302,6	-1,206
302,9	-1,097
303,1	-2,684
303,4	-1,444
303,7	-0,105
303,9	-1,9
304,2	-0,927
304,4	-1,262
304,7	1,559
304,9	0,193
305,2	3,818
305,5	3,576
305,7	3,335
306	4,349
306,2	5,843
306,5	5,085
306,8	5,081
307	3,233
307,3	4,097
307,5	5,175
307,8	3,595
308,1	1,479
308,3	2,652
308,6	1,238
308,8	2,192
309,1	2,426
309,3	2,667
309,6	2,211
309,9	4,885
310,1	4,9
310,4	5,843
310,6	6,544
310,9	5,383
311,2	5,949
311,4	5,941
311,7	5,775
311,9	5,677
312,2	6,186
312,5	6,51
312,7	5,273
313	5,583
313,2	4,953
313,5	4,542
313,7	4,202
314	2,886
314,3	1,257
314,5	1,868
314,8	2,241
315	3,293
315,3	2,139
315,6	0,936
315,8	1,298
316,1	1,325
316,3	0,084
316,6	1,155
316,8	0,589
317,1	-1,048
317,4	-3,061
317,6	-3,152
317,9	-3,427
318,1	-4,182
318,4	-4,483
318,6	-5,121
318,9	-4,853
319,2	-4,94
319,4	-5,015
319,7	-5,996
319,9	-5,094
320,2	-5,14
320,5	-4,679
320,7	-4,216
321	-4,374
321,2	-5,973
321,5	-5,328
321,7	-4,321
322	-3,672
322,3	-4,48
322,5	-4,559
322,8	-5,754
323	-6,343
323,3	-5,355
323,5	-3,556
323,8	-2,251
324,1	-1,979
324,3	-0,312
324,6	-1,477
324,8	-0,289
325,1	-1,583
325,4	-0,689
325,6	0,925
325,9	0,329
326,1	1,528
326,4	0,834
326,6	0,427
326,9	1,317
327,2	0,42
327,4	0,748
327,7	1,344
327,9	2,268
328,2	2,781
328,4	1,502
328,7	3,78
329	4,908
329,2	5,896
329,5	4,923
329,7	4,734
330	4,662
330,2	6,793
330,5	7,717
330,8	7,864
331	9,184
331,3	8,26
331,5	7,465
331,8	5,439
332	5,289
332,3	2,716
332,6	2,875
332,8	1,306
333,1	3,467
333,3	4,47
333,6	4,27
333,8	4,651
334,1	4,338
334,4	3,837
334,6	3,87
334,9	2,23
335,1	3,241
335,4	1,555
335,6	2,743
335,9	1,042
336,2	-0,584
336,4	0,774
336,7	-2,066
336,9	-1,229
337,2	-1,327
337,4	-0,734
337,7	-0,527
338	-2,545
338,2	-2,858
338,5	-5,769
338,7	-5,29
339	-4,974
339,2	-3,333
339,5	-4,623
339,8	-2,869
340	-1,549
340,3	-0,734
340,5	-0,146
340,8	3,003
341	2,362
341,3	0,65
341,6	0,465
341,8	0,978
342,1	-0,429
342,3	-0,142
342,6	1,445
342,8	2,509
343,1	3,188
343,4	3,969
343,6	1,724
343,9	3,316
344,1	4,119
344,4	2,777
344,6	2,66
344,9	1,185
345,1	1,015
345,4	0,25
345,7	0,314
345,9	2,343
346,2	0,582
346,4	1,453
346,7	0,978
346,9	0,902
347,2	-1,24
347,5	0,374
347,7	-0,987
348	-2,251
348,2	-1,1
348,5	-1,376
348,7	0,193
349	0,518
349,2	1,985
349,5	2,03
349,8	1,487
350	1,883
350,3	1,547
350,5	1,095
350,8	1,068
351	0,533
351,3	1,219
351,6	0,997
351,8	-0,225
352,1	-0,58
352,3	0,001
352,6	0,555
352,8	0,506
353,1	-0,044
353,3	0,186
353,6	-0,851
353,9	-1,557
354,1	-0,916
354,4	-0,029
354,6	1,626
354,9	0,887
355,1	2,781
355,4	2,705
355,6	3,874
355,9	4,27
356,2	4,248
356,4	5,228
356,7	1,061
356,9	0,978
357,2	0,299
357,4	0,397
357,7	-0,357
358	2,724
358,2	2,833
358,5	2,475
358,7	2,302
359	3,184
359,2	3,486
359,5	4,199
359,7	6,299
360	6,94
360,3	8,381
360,5	8,147
360,8	8,596
361	10,395
361,3	9,799
361,5	10,406
361,8	10,655
362	11,44
362,3	11,115
362,6	10,768
362,8	12,481
363,1	12,605
363,3	13,465
363,6	13,967
363,8	15,117
364,1	13,416
364,3	12,771
364,6	13,703
364,8	14,589
365,1	14,728
365,4	17,063
365,6	17,84
365,9	16,637
366,1	17,116
366,4	16,984
366,6	17,576
366,9	17,9
367,1	17,727
367,4	20,31
367,7	19,677
367,9	20,699
368,2	19,786
368,4	18,323
368,7	18,847
368,9	19,601
369,2	18,24
369,4	19,16
369,7	20,091
370	19,85
370,2	19,473
370,5	18,741
370,7	18,379
371	18,839
371,2	18,579
371,5	19,914
371,7	19,786
372	21,17
372,2	22,03
372,5	22,509
372,8	21,555
373	20,499
373,3	16,961
373,5	18,971
373,8	18,289
374	17,617
374,3	18,832
374,5	20,069
374,8	21,408
375	21,306
375,3	19,741
375,6	18,915
375,8	18,953
376,1	20,178
376,3	22,554
376,6	22,29
376,8	20,552
377,1	24,255
377,3	22,988
377,6	22,007
377,8	23,011
378,1	24,395
378,4	24,9
378,6	24,327
378,9	22,219
379,1	23,207
379,4	21,249
379,6	20,638
379,9	18,922
380,1	18,572
380,4	18,304
380,6	18,934
380,9	19,579
381,2	21,012
381,4	20,073
381,7	21,694
381,9	23,101
382,2	22,656
382,4	21,344
382,7	18,553
382,9	19,103
383,2	20,42
383,4	20,714
383,7	22,181
383,9	21,012
384,2	20,363
384,5	21,789
384,7	22,302
385	21,385
385,2	23,395
385,5	24,274
385,7	23,573
386	24,323
386,2	25,213
386,5	23,772
386,7	24,968
387	24,085
387,2	25,779
387,5	27,812
387,8	29,89
388	30,953
388,3	32,624
388,5	33,642
388,8	34,74
389	35,487
389,3	34,864
389,5	33,465
389,8	34,966
390	34,585
390,3	35,483
390,5	36,105
390,8	38,289
391,1	37,312
391,3	37,429
391,6	36,659
391,8	37,885
392,1	38,006
392,3	39,416
392,6	40,578
392,8	41,057
393,1	43,584
393,3	46,092
393,6	46,91
393,8	46,835
394,1	48,988
394,4	52,296
394,6	53,937
394,9	55,449
395,1	55,894
395,4	54,74
395,6	56,233
395,9	55,928
396,1	54,898
396,4	55,328
396,6	55,958
396,9	54,834
397,1	55,811
397,4	56,927
397,6	55,581
397,9	57,022
398,2	58,187
398,4	60,982
398,7	60,718
398,9	61,295
399,2	62,826
399,4	63,286
399,7	62,592
399,9	62,562
400,2	61,065
400,4	61,215
400,7	62,177
400,9	60,65
401,2	59,907
401,4	60,846
401,7	60,088
401,9	58,089
402,2	55,509
402,5	56,237
402,7	55,042
403	54,306
403,2	55,517
403,5	54,276
403,7	54,069
404	55,509
404,2	55,494
404,5	57,116
404,7	60,461
405	61,819
405,2	62,396
405,5	64,01
405,7	64,768
406	65,04
406,2	64,915
406,5	65,413
406,7	66,058
407	64,806
407,3	64,859
407,5	65,096
407,8	66,526
408	65,092
408,3	64,938
408,5	65,952
408,8	63,984
409	64,459
409,3	64,534
409,5	66,386
409,8	66,269
410	69,041
410,3	68,162
410,5	71,398
410,8	70,874
411	69,837
411,3	71,636
411,5	73,458
411,8	73,295
412	73,013
412,3	72,798
412,6	73,111
412,8	71,926
413,1	71,006
413,3	71,131
413,6	71,161
413,8	70,919
414,1	70,595
414,3	70,331
414,6	70,342
414,8	70,12
415,1	69,762
415,3	71,312
415,6	73,096
415,8	74,4
416,1	75,49
416,3	74,329
416,6	76,916
416,8	76,309
417,1	77,757
417,3	75,992
417,6	77,478
417,8	77,765
418,1	79,13
418,4	78,047
418,6	79,892
418,9	81,144
419,1	81,762
419,4	80,729
419,6	81,381
419,9	81,653
420,1	80,322
420,4	79,141
420,6	79,432
420,9	78,262
421,1	78,232
421,4	78,372
421,6	77,927
421,9	77,191
422,1	75,328
422,4	75,351
422,6	76,445
422,9	75,509
423,1	74,827
423,4	74,442
423,6	75,656
423,9	76,467
424,1	77,761
424,4	76,833
424,6	76,143
424,9	75,083
425,1	74,755
425,4	73,02
425,6	74,51
425,9	72,594
426,2	72,575
426,4	71,168
426,7	71,036
426,9	69,362
427,2	68,442
427,4	67,419
427,7	67,287
427,9	66,314
428,2	66,288
428,4	67,201
428,7	68,675
428,9	68,607
429,2	69,739
429,4	70,297
429,7	70,308
429,9	69,441
430,2	69,328
430,4	69,833
430,7	71,436
430,9	71,078
431,2	70,233
431,4	69,958
431,7	69,35
431,9	67,533
432,2	68,524
432,4	67,902
432,7	67,665
432,9	69,935
433,2	72,013
433,4	70,203
433,7	71,561
433,9	71,066
434,2	71,085
434,4	70,433
434,7	71,225
434,9	72,413
435,2	71,413
435,4	70,727
435,7	71,919
435,9	71,327
436,2	71,21
436,4	71,176
436,7	70,467
436,9	67,97
437,2	67,797
437,4	69,381
437,7	72,481
437,9	72,994
438,2	72,371
438,4	72,873
438,7	73,529
438,9	72,424
439,2	71,044
439,4	68,215
439,7	69,283
439,9	69,301
440,2	69,826
440,5	71,1
440,7	70,452
441	69,622
441,2	70,297
441,5	69,95
441,7	69,916
442	71,338
442,2	71,862
442,5	71,097
442,7	71,553
443	72,7
443,2	74,125
443,5	73,439
443,7	74,031
444	73,303
444,2	73,409
444,5	74,834
444,7	76,271
445	76,226
445,2	75,758
445,5	74,419
445,7	74,234
446	74,374
446,2	74,023
446,5	74,691
446,7	76,105
447	76,535
447,2	78,259
447,5	79,496
447,7	78,225
448	77,915
448,2	78,164
448,5	77,761
448,7	78,979
449	77,776
449,2	78,632
449,5	78,93
449,7	78,364
450	78,451
450,2	80,171
450,5	79,515
450,7	80,91
451	80,661
451,2	81,721
451,5	82,23
451,7	83,882
452	86,386
452,2	85,903
452,5	85,975
452,7	87,129
452,9	87,276
453,2	87,272
453,4	88,596
453,7	90,022
453,9	89,554
454,2	89,43
454,4	89,592
454,7	91,809
454,9	92,669
455,2	91,632
455,4	92,5
455,7	95,249
455,9	93,808
456,2	94,989
456,4	95,449
456,7	95,543
456,9	94,664
457,2	94,25
457,4	94,744
457,7	96,015
457,9	96,049
458,2	96,735
458,4	97,35
458,7	98,481
458,9	98,289
459,2	98,436
459,4	99,994
459,7	100,831
459,9	100,374
460,2	101,008
460,4	100,22
460,7	102,339
460,9	103,878
461,2	103,708
461,4	103,803
461,7	105,587
461,9	105,357
462,2	104,719
462,4	103,769
462,7	105,526
462,9	105,511
463,2	106,213
463,4	105,213
463,7	106,009
463,9	106,296
464,2	105,341
464,4	107,035
464,7	108,634
464,9	108,072
465,2	109,471
465,4	108,966
465,7	110,252
465,9	111,221
466,2	111,557
466,4	111,64
466,6	112,96
466,9	112,677
467,1	111,315
467,4	110,991
467,6	112,99
467,9	112,315
468,1	112,696
468,4	110,965
468,6	110,512
468,9	109,86
469,1	109,652
469,4	109,939
469,6	111,334
469,9	112,466
470,1	114,465
470,4	112,519
470,6	114,978
470,9	116,494
471,1	117,278
471,4	117,112
471,6	117,244
471,9	119,639
472,1	120,669
472,4	120,465
472,6	124,089
472,9	123,373
473,1	125,662
473,4	126,364
473,6	127,793
473,9	127,125
474,1	127,846
474,3	128,404
474,6	130,38
474,8	130,259
475,1	129,894
475,3	130,048
475,6	131,519
475,8	133,382
476,1	135,509
476,3	135,743
476,6	138,149
476,8	139,492
477,1	142,287
477,3	143,799
477,6	145,289
477,8	146,19
478,1	148,958
478,3	149,762
478,6	152,119
478,8	152,53
479,1	153,605
479,3	154,578
479,6	155,585
479,8	155,777
480,1	159,024
480,3	160,024
480,5	161,71
480,8	160,989
481	162,603
481,3	162,924
481,5	165,771
481,8	166,277
482	169,181
482,3	170,033
482,5	170,527
482,8	172,13
483	173,793
483,3	175,981
483,5	179,65
483,8	180,352
484	182,449
484,3	183,018
484,5	186,073
484,8	187,223
485	188,091
485,2	188,777
485,5	192,017
485,7	192,998
486	194,785
486,2	195,291
486,5	199,918
486,7	203,214
487	207,318
487,2	208,743
487,5	212,353
487,7	215,087
488	215,732
488,2	218,33
488,5	220,816
488,7	221,536
489	223,294
489,2	224,497
489,5	228,246
489,7	230,192
489,9	232,417
490,2	236,056
490,4	239,153
490,7	242,713
490,9	244,998
491,2	245,511
491,4	249,856
491,7	254,604
491,9	258,644
492,2	260,989
492,4	262,807
492,7	267,012
492,9	272,258
493,2	274,849
493,4	277,433
493,6	279,651
493,9	284,342
494,1	284,795
494,4	287,635
494,6	289,867
494,9	292,587
495,1	294,503
495,4	296,173
495,6	300,673
495,9	305,904
496,1	311,176
496,4	316,203
496,6	322,091
496,9	328,645
497,1	331,546
497,3	335,117
497,6	338,881
497,8	344,354
498,1	347,024
498,3	350,173
498,6	352,741
498,8	357,441
499,1	361,238
499,3	365,082
499,6	370,018
499,8	373,854
500,1	376,637
500,3	379,681
500,6	382,347
500,8	385,368
501	392,044
501,3	395,14
501,5	397,392
501,8	403,162
502	410,026
502,3	412,877
502,5	416,671
502,8	421,974
503	429,306
503,3	432,353
503,5	434,363
503,8	439,066
504	442,551
504,2	447,175
504,5	450,245
504,7	456,513
505	461,103
505,2	468,419
505,5	474,284
505,7	480,469
506	485,546
506,2	493,092
506,5	497,282
506,7	501,416
506,9	505,519
507,2	510,679
507,4	514,688
507,7	523,758
507,9	530,237
508,2	537,742
508,4	543,271
508,7	548,521
508,9	555,344
509,2	563,207
509,4	569,905
509,7	575,152
509,9	583,505
510,1	590,384
510,4	596,008
510,6	599,251
510,9	607,386
511,1	614,707
511,4	621,08
511,6	627,793
511,9	633,085
512,1	638,169
512,4	644,343
512,6	649,626
512,8	652,051
513,1	654,318
513,3	658,64
513,6	662,355
513,8	666,191
514,1	670,286
514,3	673,353
514,6	679,059
514,8	681,141
515,1	687,364
515,3	690,245
515,5	695,774
515,8	700,632
516	705,908
516,3	710,633
516,5	716,645
516,8	720,522
517	724,682
517,3	729,087
517,5	734,292
517,7	740,262
518	746,161
518,2	751,52
518,5	757,162
518,7	762,672
519	767,53
519,2	773,051
519,5	778,399
519,7	782,902
520	788,552
520,2	795,484
520,4	805,157
520,7	815,14
520,9	823,868
521,2	832,723
521,4	839,991
521,7	850,207
521,9	858,678
522,2	863,932
522,4	873,753
522,6	879,229
522,9	884,32
523,1	888,62
523,4	893,145
523,6	896,34
523,9	901,692
524,1	905,746
524,4	908,737
524,6	913,376
524,8	917,173
525,1	920,832
525,3	926,067
525,6	930,962
525,8	937,679
526,1	941,726
526,3	947,375
526,6	951,656
526,8	955,239
527	963,034
527,3	969,913
527,5	974,07
527,8	978,184
528	979,881
528,3	984,615
528,5	987,353
528,8	988,741
529	991,03
529,2	994,533
529,5	996,121
529,7	1002,163
530	1004,701
530,2	1009,325
530,5	1011,298
530,7	1014,609
531	1017,637
531,2	1023,268
531,4	1026,787
531,7	1032,437
531,9	1037,438
532,2	1041,696
532,4	1045,886
532,7	1049,374
532,9	1050,483
533,2	1051,124
533,4	1052,007
533,6	1053,406
533,9	1053,583
534,1	1054,594
534,4	1057,234
534,6	1058,867
534,9	1058,644
535,1	1059,018
535,3	1059,787
535,6	1061,345
535,8	1058,98
536,1	1060,628
536,3	1062,065
536,6	1064,207
536,8	1062,763
537,1	1064,728
537,3	1061,677
537,5	1061,058
537,8	1060,904
538	1062,635
538,3	1061,877
538,5	1062,031
538,8	1061,198
539	1059,195
539,2	1057,856
539,5	1057,057
539,7	1057,128
540	1057,264
540,2	1058,12
540,5	1058,584
540,7	1060,368
540,9	1060,044
541,2	1060,956
541,4	1064,075
541,7	1067,168
541,9	1067,285
542,2	1063,446
542,4	1063,008
542,7	1063,14
542,9	1063,891
543,1	1064,358
543,4	1067,24
543,6	1067,115
543,9	1067,59
544,1	1067,598
544,4	1067,779
544,6	1067,364
544,8	1070,151
545,1	1070,777
545,3	1071,294
545,6	1072,821
545,8	1074,7
546,1	1075,179
546,3	1076,299
546,5	1078,067
546,8	1079,614
547	1080,723
547,3	1080,568
547,5	1079,025
547,8	1078,89
548	1079,244
548,2	1079,565
548,5	1077,649
548,7	1078,362
549	1075,269
549,2	1074,605
549,5	1073,391
549,7	1073,855
549,9	1073,832
550,2	1073,798
550,4	1072,018
550,7	1072,112
550,9	1068,514
551,2	1068,718
551,4	1068,869
551,6	1068,529
551,9	1069,355
552,1	1069,412
552,4	1068,624
552,6	1066,165
552,9	1066,35
553,1	1064,079
553,3	1063,683
553,6	1062,175
553,8	1060,47
554,1	1060,345
554,3	1056,985
554,5	1054,933
554,8	1051,166
555	1049,683
555,3	1045,625
555,5	1042,755
555,8	1038,905
556	1038,101
556,2	1033,172
556,5	1031,814
556,7	1027,511
557	1027,428
557,2	1024,43
557,5	1023,491
557,7	1022,227
557,9	1019,976
558,2	1016,921
558,4	1017,272
558,7	1012,674
558,9	1011,486
559,2	1009,849
559,4	1006,349
559,6	1005,757
559,9	1004,762
560,1	1003,577
560,4	1002,257
560,6	1001,315
560,8	999,482
561,1	997,837
561,3	997,509
561,6	995,344
561,8	994,119
562,1	991,101
562,3	990,615
562,5	989,638
562,8	990,951
563	989,446
563,3	990,087
563,5	990,234
563,7	990,732
564	989,382
564,2	989,393
564,5	987,368
564,7	988,782
565	988,503
565,2	985,795
565,4	985,901
565,7	987,345
565,9	984,848
566,2	985,112
566,4	982,736
566,6	982,861
566,9	983,728
567,1	983,423
567,4	981,45
567,6	981,431
567,9	978,618
568,1	978,429
568,3	976,928
568,6	977,241
568,8	976,815
569,1	974,737
569,3	973,757
569,5	974,82
569,8	976,777
570	977,098
570,3	976,604
570,5	978,199
570,7	977,818
571	977,272
571,2	977,196
571,5	975,786
571,7	973,843
572	973,168
572,2	969,676
572,4	969,227
572,7	969,001
572,9	968,673
573,2	965,267
573,4	963,657
573,6	962,748
573,9	961,507
574,1	957,709
574,4	953,059
574,6	950,822
574,8	947,703
575,1	946,187
575,3	944,056
575,6	941,511
575,8	939,406
576	936,246
576,3	933,349
576,5	933,707
576,8	933,636
577	932,61
577,3	929,793
577,5	927,334
577,7	925,237
578	922,427
578,2	919,444
578,5	916,08
578,7	914,311
578,9	914,273
579,2	912,825
579,4	910,615
579,7	911,211
579,9	908,073
580,1	906,708
580,4	905,331
580,6	904,931
580,9	906,236
581,1	904,516
581,3	903,932
581,6	901,122
581,8	901,269
582,1	899,546
582,3	899,244
582,5	897,879
582,8	898,765
583	898,999
583,3	898,908
583,5	896,762
583,7	896,498
584	893,617
584,2	891,411
584,5	888,733
584,7	885,84
584,9	882,589
585,2	878,101
585,4	873,787
585,7	868,065
585,9	862,001
586,1	855,725
586,4	848,284
586,6	843,747
586,9	838,584
587,1	831,927
587,3	827,56
587,6	822,925
587,8	817,196
588,1	812,15
588,3	806,206
588,5	801,884
588,8	796,559
589	795,042
589,3	791,03
589,5	787,1
589,7	785,274
590	781,333
590,2	777,912
590,5	772,482
590,7	767,914
590,9	767,526
591,2	762,744
591,4	759,312
591,7	757,818
591,9	757,633
592,1	756,227
592,4	756,242
592,6	756,125
592,9	757,279
593,1	759,828
593,3	763,215
593,6	766,228
593,8	770,192
594,1	772,998
594,3	774,99
594,5	777,004
594,8	778,369
595	782,095
595,3	784,271
595,5	787,933
595,7	790,588
596	793,741
596,2	797,105
596,4	801,179
596,7	804,305
596,9	807,137
597,2	806,998
597,4	810,698
597,6	811,912
597,9	813,738
598,1	817,007
598,4	819,27
598,6	823,045
598,8	826,459
599,1	826,659
599,3	828,197
599,6	830,026
599,8	832,203
600	835,084
600,3	837,996
600,5	839,055
600,7	841,556
601	843,924
601,2	845,821
601,5	846,564
601,7	848,367
601,9	850,505
602,2	852,795
602,4	852,346
602,7	852,814
602,9	852,259
603,1	852,625
603,4	852,436
603,6	852,255
603,9	851,045
604,1	850,713
604,3	850,143
604,6	849,476
604,8	847,779
605	846,972
605,3	845,644
605,5	844,931
605,8	842,442
606	841,111
606,2	838,961
606,5	837,573
606,7	833,236
607	830,294
607,2	825,648
607,4	821,65
607,7	817,777
607,9	814,605
608,1	811,452
608,4	807,379
608,6	802,491
608,9	798,965
609,1	794,786
609,3	790,064
609,6	786,093
609,8	783,128
610,1	779,689
610,3	772,949
610,5	768,91
610,8	764,531
611	760,488
611,2	755,604
611,5	752,229
611,7	747,168
612	745,595
612,2	740,926
612,4	737,614
612,7	734,19
612,9	729,917
613,1	724,641
613,4	720,786
613,6	716,679
613,9	713,266
614,1	710,411
614,3	707,884
614,6	706,594
614,8	704,128
615	700,545
615,3	698,606
615,5	695,763
615,8	691,701
616	690,596
616,2	687,952
616,5	687,613
616,7	687,394
616,9	684,799
617,2	682,28
617,4	681,838
617,7	681,612
617,9	678,719
618,1	675,578
618,4	673,432
618,6	671,154
618,8	670,241
619,1	670,807
619,3	667,326
619,6	665,286
619,8	661,94
620	660,405
620,3	658,791
620,5	658,444
620,7	654,748
621	652,497
621,2	648,631
621,5	646,123
621,7	644,331
621,9	641,129
622,2	637,354
622,4	636,924
622,6	635,216
622,9	632,613
623,1	632,383
623,4	628,642
623,6	626,971
623,8	624,131
624,1	620,017
624,3	617,365
624,5	615,28
624,8	611,655
625	609,766
625,3	608,288
625,5	607,364
625,7	606,093
626	602,943
626,2	598,806
626,4	594,865
626,7	592,1
626,9	591,406
627,1	590,494
627,4	588,623
627,6	585,383
627,9	582,924
628,1	581,963
628,3	580,835
628,6	580,779
628,8	580,533
629	579,108
629,3	578,697
629,5	579,564
629,8	576,102
630	575,295
630,2	573,138
630,5	571,708
630,7	570,848
630,9	569,483
631,2	567,322
631,4	566,877
631,6	565,715
631,9	563,95
632,1	562,355
632,4	561,801
632,6	560,582
632,8	559,704
633,1	558,172
633,3	559,821
633,5	559,398
633,8	558,844
634	560,601
634,2	560,349
634,5	559,195
634,7	560,533
635	560,737
635,2	560,673
635,4	561,307
635,7	562,577
635,9	561,19
636,1	561,092
636,4	560,292
636,6	557,991
636,8	556,8
637,1	557,15
637,3	555,48
637,5	555,182
637,8	553,541
638	553,171
638,3	551,659
638,5	551,712
638,7	549,996
639	550,927
639,2	551,271
639,4	549,773
639,7	548,676
639,9	547,216
640,1	548,955
640,4	549,954
640,6	546,994
640,9	547,209
641,1	547,326
641,3	544,806
641,6	542,924
641,8	542,412
642	538,874
642,3	536,735
642,5	535,593
642,7	531,531
643	529,97
643,2	526,632
643,4	522,981
643,7	520,85
643,9	519,557
644,1	515,808
644,4	514,808
644,6	511,844
644,9	510,298
645,1	507,967
645,3	505,304
645,6	503,102
645,8	499,179
646	498,712
646,3	494,45
646,5	491,504
646,7	491,64
647	488,468
647,2	485,987
647,4	482,276
647,7	477,822
647,9	477,803
648,1	475,996
648,4	472,18
648,6	469,988
648,9	468,921
649,1	468,001
649,3	468,476
649,6	467,556
649,8	466,428
650	466,292
650,3	462,502
650,5	463,377
650,7	462,6
651	460,503
651,2	461,107
651,4	460,345
651,7	457,097
651,9	456,215
652,1	455,351
652,4	453,892
652,6	453,039
652,8	451,976
653,1	450,486
653,3	446,779
653,5	444,995
653,8	441,895
654	439,511
654,3	437,776
654,5	436,875
654,7	433,356
655	431,248
655,2	428,661
655,4	425,3
655,7	426,255
655,9	427,25
656,1	427,337
656,4	424,229
656,6	421,28
656,8	426,451
657,1	426,896
657,3	426,002
657,5	424,953
657,8	425,61
658	425,462
658,2	426,466
658,5	424,652
658,7	424,097
658,9	424,637
659,2	423,886
659,4	422,253
659,6	422,702
659,9	423,143
660,1	422,294
660,3	423,279
660,6	424,523
660,8	425,926
661	426,816
661,3	426,198
661,5	425,779
661,8	425,885
662	426,043
662,2	426,979
662,5	425,7
662,7	426,3
662,9	423,811
663,2	422,717
663,4	418,206
663,6	417,403
663,9	418,451
664,1	411,742
664,3	410,248
664,6	410,128
664,8	408,506
665	407,246
665,3	407,261
665,5	406,009
665,7	406,662
666	407,05
666,2	404,693
666,4	403,833
666,7	403,399
666,9	401,989
667,1	400,096
667,4	400,386
667,6	398,391
667,8	396,781
668,1	394,744
668,3	393,533
668,5	393,303
668,8	393,066
669	391,24
669,2	392,443
669,5	391,595
669,7	391,542
669,9	389,125
670,2	388,589
670,4	385,934
670,6	386,809
670,9	387,145
671,1	383,724
671,3	383,464
671,6	380,601
671,8	379,183
672	379,858
672,3	378,795
672,5	377,897
672,7	374,989
673	374,171
673,2	371,897
673,4	373,458
673,7	372,9
673,9	371,199
674,1	370,079
674,4	369,543
674,6	367,348
674,8	366,398
675,1	365,002
675,3	363,754
675,5	364,154
675,8	362,475
676	362,23
676,2	363,592
676,5	361,461
676,7	361,732
676,9	360,522
677,2	360,069
677,4	358,881
677,6	358,904
677,9	357,984
678,1	356,517
678,3	356,407
678,5	353,884
678,8	352,666
679	351,708
679,2	350,535
679,5	350,105
679,7	347,227
679,9	348,431
680,2	345,021
680,4	347,227
680,6	343,041
680,9	342,502
681,1	341,913
681,3	342,822
681,6	340,967
681,8	341,77
682	340,48
682,3	342,008
682,5	341,717
682,7	338,447
683	335,958
683,2	332,044
683,4	328,004
683,7	323,92
683,9	321,106
684,1	318,372
684,4	316,72
684,6	313,45
684,8	308,234
685,1	305,074
685,3	301,257
685,5	298,617
685,7	295,581
686	293,307
686,2	290,663
686,4	287,929
686,7	282,773
686,9	280,914
687,1	277,139
687,4	275,815
687,6	270,558
687,8	269,166
688,1	266,635
688,3	264,497
688,5	260,884
688,8	261,604
689	257,184
689,2	257,629
689,5	253,394
689,7	251,082
689,9	248,517
690,2	246,888
690,4	247,163
690,6	245,673
690,8	245,074
691,1	243,599
691,3	242,441
691,5	240,888
691,8	239,96
692	242,223
692,2	243,701
692,5	243,128
692,7	243,554
692,9	244,323
693,2	243,584
693,4	243,626
693,6	243,365
693,9	245,138
694,1	246,092
694,3	246,643
694,5	246,914
694,8	246,858
695	247,016
695,2	246,462
695,5	245,67
695,7	245,492
695,9	244,018
696,2	244,025
696,4	242,698
696,6	242,166
696,9	241,265
697,1	244,866
697,3	247,039
697,6	247,597
697,8	247,955
698	249,155
698,2	248,302
698,5	249,155
698,7	249,656
698,9	250,855
699,2	250,765
699,4	248,242
699,6	249,449
699,9	247,706
700,1	247,291
700,3	248,404
700,6	249,087
700,8	249,611
701	249,37
701,2	247,74
701,5	246,899
701,7	246,002
701,9	244,527
702,2	245,504
702,4	246,36
702,6	246,447
702,9	244,908
703,1	243,58
703,3	245,21
703,6	245,417
703,8	245,345
704	245,768
704,2	242,622
704,5	241,695
704,7	241,687
704,9	242,147
705,2	242,181
705,4	242,728
705,6	242,815
705,9	243,588
706,1	243,954
706,3	242,577
706,5	241,536
706,8	241,152
707	241,676
707,2	241,578
707,5	240,812
707,7	239,424
707,9	238,742
708,2	237,629
708,4	237,15
708,6	236,897
708,8	235,996
709,1	237,12
709,3	235,585
709,5	233,529
709,8	233,665
710	234,917
710,2	234,069
710,5	233,092
710,7	231,24
710,9	231,195
711,1	230,901
711,4	230,071
711,6	228,808
711,8	227,951
712,1	226,903
712,3	225,545
712,5	224,84
712,8	224,399
713	221,28
713,2	218,466
713,4	217,799
713,7	217,414
713,9	214,585
714,1	213,511
714,4	210,652
714,6	207,348
714,8	203,395
715,1	199,613
715,3	196,829
715,5	192,609
715,7	189,294
716	185,866
716,2	181,54
716,4	178,021
716,7	174,608
716,9	172,447
717,1	168,042
717,3	166,394
717,6	163,248
717,8	160,974
718	157,84
718,3	154,812
718,5	153,122
718,7	151,813
718,9	149,475
719,2	146,299
719,4	144,391
719,6	141,419
719,9	138,3
720,1	138,206
720,3	136,169
720,6	132,281
720,8	130,305
721	129,818
721,2	128,31
721,5	127,963
721,7	127,51
721,9	127,555
722,2	126,865
722,4	126,186
722,6	128,476
722,8	128,932
723,1	129,92
723,3	131,168
723,5	131,127
723,8	132,032
724	130,165
724,2	129,532
724,4	130,259
724,7	131,625
724,9	132,036
725,1	132,749
725,4	134,152
725,6	132,115
725,8	130,557
726	129,362
726,3	127,834
726,5	126,982
726,7	126,654
727	124,58
727,2	122,094
727,4	122,72
727,6	123,312
727,9	124,368
728,1	123,803
728,3	122,626
728,6	123,644
728,8	124,693
729	124,278
729,2	126,341
729,5	127,303
729,7	126,288
729,9	126,631
730,2	127,506
730,4	128,321
730,6	129,796
730,8	129,554
731,1	131,851
731,3	133,16
731,5	132,266
731,7	130,584
732	131,07
732,2	131,783
732,4	131,47
732,7	134,016
732,9	133,839
733,1	133,959
733,3	136,513
733,6	138,625
733,8	139,877
734	144,855
734,3	146,767
734,5	150,173
734,7	152,138
734,9	151,051
735,2	153,612
735,4	154,514
735,6	154,076
735,9	154,913
736,1	156,863
736,3	157,188
736,5	156,535
736,8	157,173
737	156,2
737,2	155,845
737,4	154,551
737,7	154,672
737,9	158,217
738,1	155,762
738,4	156,75
738,6	157,071
738,8	157,946
739	156,282
739,3	155,781
739,5	154,525
739,7	153,835
739,9	157,195
740,2	158,817
740,4	157,821
740,6	156,056
740,9	155,26
741,1	153,933
741,3	153,284
741,5	150,625
741,8	150,271
742	152,247
742,2	151,934
742,4	152,236
742,7	153,548
742,9	153,201
743,1	151,496
743,4	150,139
743,6	150,248
743,8	150,267
744	152,058
744,3	152,421
744,5	151,806
744,7	151,625
744,9	149,935
745,2	152,722
745,4	151,029
745,6	150,799
745,8	150,358
746,1	152,228
746,3	153,918
746,5	156,256
746,8	155,245
747	154,491
747,2	155,6
747,4	157,025
747,7	157,274
747,9	158,545
748,1	156,607
748,3	157,746
748,6	158,33
748,8	157,414
749	156,188
749,2	154,631
749,5	153,627
749,7	153,314
749,9	153,035
750,2	155,321
750,4	155,453
750,6	155,502
750,8	154,989
751,1	153,741
751,3	152,04
751,5	154,238
751,7	154,819
752	153,597
752,2	152,255
752,4	152,239
752,6	151,975
752,9	151,7
753,1	150,161
753,3	149,279
753,5	147,657
753,8	149,139
754	146,978
754,2	145,59
754,4	144,689
754,7	143,905
754,9	141,947
755,1	141,849
755,4	140,408
755,6	140,171
755,8	139,741
756	137,84
756,3	135,321
756,5	132,692
756,7	128,012
756,9	124,636
757,2	119,254
757,4	115,453
757,6	110,127
757,8	105,213
758,1	103,531
758,3	101,351
758,5	96,731
758,7	91,455
759	86,541
759,2	84,655
759,4	81,706
759,6	78,753
759,9	75,249
760,1	72,696
760,3	67,823
760,5	64,602
760,8	59,85
761	56,969
761,2	53,141
761,4	50,746
761,7	49,113
761,9	48,136
762,1	45,074
762,3	42,392
762,6	38,919
762,8	37,063
763	35,124
763,2	37,591
763,5	39,085
763,7	39,564
763,9	40,759
764,1	42,732
764,4	43,754
764,6	47,465
764,8	50,606
765	50,059
765,3	50,003
765,5	50,95
765,7	52,583
765,9	56,452
766,2	56,75
766,4	59,243
766,6	59,496
766,8	61,313
767,1	61,815
767,3	63,98
767,5	65,775
767,7	69,071
768	70,576
768,2	73,356
768,4	73,657
768,6	73,231
768,9	72,994
769,1	74,778
769,3	76,633
769,5	77,572
769,8	79,232
770	81,412
770,2	79,975
770,4	80,284
770,7	81,053
770,9	81,457
771,1	81,004
771,3	82,611
771,6	81,943
771,8	82,86
772	82,724
772,2	82,004
772,5	83,022
772,7	84,059
772,9	83,037
773,1	81,706
773,4	81,887
773,6	82,928
773,8	80,823
774	81,008
774,3	80,642
774,5	80,024
774,7	77,817
774,9	77,282
775,2	75,803
775,4	76,143
775,6	76,211
775,8	76,663
776	77,606
776,3	76,761
776,5	76,301
776,7	75,581
776,9	76,086
777,2	75,679
777,4	74,793
777,6	74,284
777,8	74,246
778,1	74,725
778,3	73,205
778,5	72,545
778,7	71,719
779	70,961
779,2	73,016
779,4	71,832
779,6	71,063
779,9	69,324
780,1	70,373
780,3	68,626
780,5	66,552
780,7	67,178
781	68,294
781,2	68,287
781,4	66,658
781,6	67,657
781,9	68,2
782,1	66,925
782,3	66,495
782,5	65,383
782,8	64,764
783	65,021
783,2	64,651
783,4	63,953
783,7	62,965
783,9	60,446
784,1	58,756
784,3	57,704
784,5	56,29
784,8	53,605
785	52,224
785,2	51,821
785,4	51,757
785,7	49,614
785,9	51,278
786,1	49,686
786,3	49,098
786,6	48,294
786,8	49,298
787	48,785
787,2	48,811
787,4	48,732
787,7	49,388
787,9	48,121
788,1	47,921
788,3	48,491
788,6	46,808
788,8	43,859
789	42,354
789,2	40,578
789,5	40,273
789,7	38,689
789,9	36,633
790,1	34,491
790,3	34,676
790,6	34,563
790,8	35,634
791	36,656
791,2	38,285
791,5	40,985
791,7	41,845
791,9	42,034
792,1	42,336
792,3	41,238
792,6	41,291
792,8	39,009
793	40,405
793,2	41,608
793,5	41,51
793,7	41,046
793,9	39,869
794,1	39,398
794,3	39,175
794,6	39,33
794,8	37,979
795	37,93
795,2	36,991
795,5	37,425
795,7	37,863
795,9	39,688
796,1	38,994
796,3	39,152
796,6	40,899
796,8	40,793
797	43,772
797,2	44,395
797,5	45,096
797,7	44,723
797,9	42,471
798,1	42,204
798,3	49,117
798,6	49,46
798,8	50,987
799	50,636
799,2	50,84
799,5	51,681
799,7	52,756
799,9	50,976
800,1	48,479
800,3	48,144
800,6	48,359
800,8	48,385
801	48,992
801,2	49,09
801,5	48,792
801,7	48,43
801,9	47,819
802,1	48,958
802,3	49,041
802,6	48,615
802,8	47,129
803	48,589
803,2	49,086
803,4	47,419
803,7	48,219
803,9	46,831
804,1	46,058
804,3	44,979
804,6	45,213
804,8	47,242
805	45,405
805,2	35,645
805,4	34,397
805,7	32,62
805,9	31,7
806,1	32,013
806,3	31,598
806,5	30,938
806,8	29,799
807	31,591
807,2	32,307
807,4	31,723
807,6	29,475
807,9	28,219
808,1	28,215
808,3	28,162
808,5	30,806
808,8	31,938
809	30,184
809,2	31,73
809,4	31,881
809,6	31,568
809,9	30,229
810,1	28,834
810,3	29,848
810,5	28,8
810,7	27,201
811	25,949
811,2	25,341
811,4	24,448
811,6	23,81
811,8	24,244
812,1	24,557
812,3	24,206
812,5	23,682
812,7	22,977
812,9	22,69
813,2	22,931
813,4	21,076
813,6	21,11
813,8	19,311
814	17,844
814,3	17,482
814,5	19,873
814,7	18,119
814,9	16,324
815,2	15,487
815,4	13,341
815,6	11,576
815,8	11,127
816	9,418
816,3	10,161
816,5	9,29
816,7	9,509
816,9	10,346
817,1	10,037
817,4	7,962
817,6	7,895
817,8	7,74
818	7,05
818,2	6,39
818,5	4,923
818,7	3,87
818,9	2,517
819,1	4,391
819,3	4,764
819,6	6,213
819,8	7,887
820	5,986
820,2	6,288
820,4	6,296
820,7	7,069
820,9	7,748
821,1	8
821,3	7,533
821,5	9,663
821,8	11,093
822	9,98
822,2	10,848
822,4	9,739
822,6	9,856
822,9	9,89
823,1	8,189
823,3	8,973
823,5	7,857
823,7	8,762
823,9	7,306
824,2	7,962
824,4	7,506
824,6	8,589
824,8	8,343
825	8,404
825,3	8,185
825,5	8,649
825,7	9,863
825,9	7,921
826,1	7,005
826,4	6,239
826,6	3,463
826,8	3,12
827	3,395
827,2	3,331
827,5	3,278
827,7	3,478
827,9	3,912
828,1	3,772
828,3	3,286
828,6	3,501
828,8	4,187
829	2,754
829,2	2,916
829,4	4,512
829,6	4,463
829,9	5,628
830,1	5,089
830,3	4,998
830,5	3,98
830,7	4,036
831	3,855
831,2	4,87
831,4	3,146
831,6	2,686
831,8	2,611
832,1	4,41
832,3	5,107
832,5	5,651
832,7	5,168
832,9	5,541
833,1	5,519
833,4	6,356
833,6	7,989
833,8	9,976
834	10,625
834,2	11,609
834,5	10,851
834,7	8,694
834,9	8,279
835,1	8,155
835,3	7,631
835,5	7,759
835,8	8,8
836	9,761
836,2	7,748
836,4	7,898
836,6	7,382
836,9	6,974
837,1	7,529
837,3	7,732
837,5	7,223
837,7	6,597
837,9	5,194
838,2	7,329
838,4	7,238
838,6	8,811
838,8	8,215
839	6,548
839,3	6,707
839,5	7,838
839,7	7,932
839,9	7,51
840,1	7,137
840,3	9,007
840,6	6,13
840,8	6,989
841	5,813
841,2	6,092
841,4	6,416
841,7	6,695
841,9	6,835
842,1	6,16
842,3	5,96
842,5	5,217
842,7	6,318
843	5,832
843,2	4,64
843,4	7,306
843,6	8,181
843,8	8,672
844	8,208
844,3	8,389
844,5	8,868
844,7	8,754
844,9	8,079
845,1	7,94
845,4	6,088
845,6	6,688
845,8	9,931
846	8,577
846,2	7,574
846,4	7,491
846,7	7,502
846,9	8,215
847,1	6,378
847,3	7,834
847,5	6,571
847,7	6,118
848	5,149
848,2	5,832
848,4	5,76
848,6	5,239
848,8	4,749
849	4,953
849,3	5,394
849,5	4,168
849,7	3,908
849,9	3,048
850,1	-0,998
850,3	0,216
850,6	0,091
850,8	-0,708
851	-1,014
851,2	-0,538
851,4	0,171
851,6	-1,636
851,9	-1,127
852,1	0,484
852,3	-1,809
852,5	-3,405
852,7	-2,752
852,9	-1,221
853,2	0,163
853,4	0,378
853,6	-0,787
853,8	-1,855
854	-4,144
854,2	-3,197
854,5	-2,922
854,7	-3,265
854,9	-3,039
855,1	-2,703
855,3	-2,345
855,5	-0,931
855,8	-1,47
856	-3,405
856,2	-4,249
856,4	-1,67
856,6	-0,693
856,8	0,005
857,1	1,2
857,3	0,446
857,5	0,536
857,7	2,943
857,9	3,109
858,1	4,331
858,4	4,327
858,6	4,101
858,8	2,592
859	3,474
859,2	1,694
859,4	1,37
859,7	0,499
859,9	-1,44
860,1	-2,066
860,3	-1,79
860,5	-1,27
860,7	-0,372
860,9	-1,455
861,2	-0,584
861,4	0,329
861,6	0,672
861,8	0,457
862	0,695
862,2	0,284
862,5	0,069
862,7	0,974
862,9	1,087
863,1	0,48
863,3	0,721
863,5	0,797
863,8	-2,217
864	-0,708
864,2	0,574
864,4	-1,979
864,6	-3,405
864,8	-4,385
865	-3,359
865,3	-2,718
865,5	-2,62
865,7	-1,368
865,9	-0,897
866,1	-2,005
866,3	-3,016
866,6	-2,224
866,8	-2,824
867	-3,669
867,2	-4,197
867,4	-3,122
867,6	-3,442
867,8	-4,506
868,1	-4,634
868,3	-5,2
868,5	-5,969
868,7	-7,953
868,9	-8,934
869,1	-7,93
869,3	-8,172
869,6	-8,391
869,8	-8,658
870	-9,609
870,2	-9,556
870,4	-9,382
870,6	-10,487
870,9	-11,536
871,1	-12,215
871,3	-11,683
871,5	-12,373
871,7	-10,48
871,9	-11,8
872,1	-13,007
872,4	-14,489
872,6	-15,04
872,8	-13,603
873	-13,169
873,2	-13,207
873,4	-11,049
873,6	-10,333
873,9	-9,948
874,1	-11,125
874,3	-11,494
874,5	-11,951
874,7	-12,833
874,9	-13,391
875,1	-14,029
875,4	-13,075
875,6	-13,648
875,8	-13,784
876	-11,906
876,2	-11,427
876,4	-12,905
876,6	-11,747
876,9	-10,619
877,1	-10,216
877,3	-10,963
877,5	-12,354
877,7	-10,785
877,9	-9,624
878,1	-11,038
878,4	-13,116
878,6	-11,51
878,8	-10,386
879	-10,997
879,2	-8,903
879,4	-10,978
879,6	-9,695
879,9	-11,151
880,1	-11,555
880,3	-11,804
880,5	-10,925
880,7	-9,307
880,9	-8,692
881,1	-7,282
881,3	-6,652
881,6	-7,044
881,8	-8,496
882	-8,168
882,2	-5,339
882,4	-5,388
882,6	-6,867
882,8	-7,463
883,1	-7,006
883,3	-7,451
883,5	-8,443
883,7	-6,644
883,9	-6,414
884,1	-5,524
884,3	-7,335
884,6	-8,176
884,8	-5,366
885	-5,675
885,2	-6,614
885,4	-6,991
885,6	-5,471
885,8	-5,898
886	-3,778
886,3	-5,162
886,5	-5,573
886,7	-6,343
886,9	-5,204
887,1	-5,913
887,3	-7,108
887,5	-6,724
887,8	-6,362
888	-7,599
888,2	-6,546
888,4	-4,887
888,6	-5,079
888,8	-6,863
889	-5,607
889,2	-6,708
889,5	-8,017
889,7	-7,64
889,9	-6,056
890,1	-6,807
890,3	-8,824
890,5	-7,7
890,7	-7,014
890,9	-6,335
891,2	-6,26
891,4	-7,391
891,6	-6,791
891,8	-6,524
892	-6,92
892,2	-8,059
892,4	-10,699
892,6	-11,517
892,9	-11,378
893,1	-9,892
893,3	-9,488
893,5	-10,265
893,7	-10,465
893,9	-10,091
894,1	-10,438
894,3	-11,43
894,6	-10,842
894,8	-11,174
895	-10,733
895,2	-10,755
895,4	-10,397
895,6	-13,063
895,8	-12,113
896	-10,242
896,3	-10,804
896,5	-12,173
896,7	-10,435
896,9	-10,544
897,1	-10,457
897,3	-11,702
897,5	-10,966
897,7	-10,906
898	-9,85
898,2	-10,736
898,4	-11,359
898,6	-10,868
898,8	-10,974
899	-9,058
899,2	-7,018
899,4	-6,105
899,6	-6,799
899,9	-7,885
900,1	-6,418
900,3	-5,739
900,5	-4,744
900,7	-5,17
900,9	-6,648
901,1	-5,52
901,3	-6,52
901,6	-6,603
901,8	-5,668
902	-7,089
902,2	-7,089
902,4	-7,961
902,6	-8,738
902,8	-9,899
903	-10,778
903,2	-12,03
903,5	-12,509
903,7	-13,531
903,9	-12,803
904,1	-13,271
904,3	-13,022
904,5	-13,893
904,7	-12,946
904,9	-12,773
905,1	-12,773
905,4	-11,332
905,6	-12,207
905,8	-14,165
906	-14,625
906,2	-14,655
906,4	-14,101
906,6	-15,179
906,8	-14,183
907	-15,258
907,3	-14,93
907,5	-15,654
907,7	-17,465
907,9	-15,39
908,1	-16,088
908,3	-17,974
908,5	-16,348
908,7	-15,884
908,9	-15,496
909,2	-16,182
909,4	-13,772
909,6	-13,591
909,8	-15,066
910	-15,281
910,2	-14,263
910,4	-14,561
910,6	-14,01
910,8	-15,345
911,1	-13,15
911,3	-11,664
911,5	-12,026
911,7	-11,936
911,9	-12,603
912,1	-11,517
912,3	-12,388
912,5	-11,427
912,7	-10,834
912,9	-10,767
913,2	-10,702
913,4	-12,769
913,6	-12,411
913,8	-12,068
914	-9,812
914,2	-9,054
914,4	-9,269
914,6	-9,677
914,8	-8,945
915,1	-8,032
915,3	-7,561
915,5	-6,06
915,7	-5,8
915,9	-6,305
916,1	-6,818
916,3	-6,856
916,5	-5,856
916,7	-6,241
916,9	-4,268
917,2	-4,366
917,4	-3,224
917,6	-6,275
917,8	-8,093
918	-9,492
918,2	-9,013
918,4	-10,19
918,6	-11,411
918,8	-10,891
919	-12,475
919,2	-11,427
919,5	-10,193
919,7	-12,188
919,9	-11,823
920,1	-12,539
920,3	-13,425
920,5	-13,218
920,7	-13,045
920,9	-15,047
921,1	-14,063
921,3	-15,285
921,6	-17,657
921,8	-18,302
922	-20,629
922,2	-21,881
922,4	-22,379
922,6	-22,598
922,8	-19,882
923	-20,991
923,2	-21,734
923,4	-24,295
923,6	-24,28
923,9	-24,272
924,1	-24,012
924,3	-24,951
924,5	-23,122
924,7	-23,812
924,9	-22,334
925,1	-22,032
925,3	-20,795
925,5	-20,735
925,7	-22,371
925,9	-23,337
926,2	-21,843
926,4	-22,409
926,6	-21,395
926,8	-21,76
927	-23,062
927,2	-22,401
927,4	-22,047
927,6	-22,99
927,8	-21,183
928	-21,383
928,2	-20,44
928,5	-20,157
928,7	-19,2
928,9	-18,343
929,1	-16,937
929,3	-16,793
929,5	-15,801
929,7	-15,722
929,9	-15,055
930,1	-16,435
930,3	-17,438
930,5	-15,522
930,8	-13,765
931	-13,486
931,2	-14,161
931,4	-14,783
931,6	-13,15
931,8	-13,399
932	-13,011
932,2	-14,727
932,4	-15,873
932,6	-16,556
932,8	-16,729
933	-19,256
933,3	-19,577
933,5	-19,415
933,7	-20,056
933,9	-19,233
934,1	-18,102
934,3	-17,808
934,5	-17,02
934,7	-18,577
934,9	-18,249
935,1	-17,378
935,3	-17,687
935,5	-19,55
935,7	-21,266
936	-21,345
936,2	-21,523
936,4	-20,976
936,6	-19,022
936,8	-19,06
937	-20,659
937,2	-21,753
937,4	-21,96
937,6	-22,579
937,8	-21,9
938	-24,747
938,2	-26,045
938,4	-24,366
938,7	-22,198
938,9	-22,055
939,1	-21,613
939,3	-20,486
939,5	-18,709
939,7	-18,4
939,9	-19,226
940,1	-18,936
940,3	-19,795
940,5	-20,38
940,7	-21,432
940,9	-19,939
941,1	-19,068
941,4	-19,019
941,6	-19,128
941,8	-20,259
942	-17,985
942,2	-18,159
942,4	-18,332
942,6	-16,944
942,8	-16,846
943	-17,687
943,2	-16,993
943,4	-16,51
943,6	-15,847
943,8	-16,239
944	-16,099
944,3	-16,556
944,5	-15,862
944,7	-13,184
944,9	-14,323
945,1	-13,674
945,3	-12,958
945,5	-12,43
945,7	-12,211
945,9	-13,463
946,1	-12,622
946,3	-12,641
946,5	-13,757
946,7	-13,241
946,9	-12,441
947,1	-12,649
947,4	-14,24
947,6	-15,843
947,8	-15,911
948	-16,062
948,2	-14,934
948,4	-16,805
948,6	-15,956
948,8	-15,673
949	-15,439
949,2	-14,923
949,4	-15,605
949,6	-16,111
949,8	-16,933
950	-17,529
950,2	-14,708
950,5	-13,305
950,7	-14,138
950,9	-12,988
951,1	-15,884
951,3	-14,798
951,5	-15,224
951,7	-16,518
951,9	-16,982
952,1	-17,559
952,3	-16,582
952,5	-17,359
952,7	-16,461
952,9	-15,541
953,1	-16,45
953,3	-17,076
953,5	-17,212
953,8	-16,412
954	-14,142
954,2	-15,243
954,4	-14,976
954,6	-15,839
954,8	-15,1
955	-14,391
955,2	-13,286
955,4	-14,595
955,6	-17,001
955,8	-15,519
956	-15,051
956,2	-14,474
956,4	-14,153
956,6	-17,389
956,8	-17,54
957	-16,435
957,2	-16,544
957,5	-16,277
957,7	-17,947
957,9	-18,008
958,1	-17,88
958,3	-19,286
958,5	-20,297
958,7	-20,531
958,9	-19,803
959,1	-19,988
959,3	-20,056
959,5	-20,165
959,7	-20,059
959,9	-20,237
960,1	-21,097
960,3	-21,164
960,5	-18,626
960,7	-18,577
960,9	-17,084
961,1	-16,835
961,4	-18,166
961,6	-20,263
961,8	-21,089
962	-20,142
962,2	-19,26
962,4	-21,428
962,6	-20,542
962,8	-21,659
963	-21,802
963,2	-22,156
963,4	-22,813
963,6	-24,483
963,8	-25,404
964	-26,316
964,2	-27,648
964,4	-25,834
964,6	-24,336
964,8	-23,484
965	-23,491
965,2	-24,076
965,5	-24,099
965,7	-23,295
965,9	-22,549
966,1	-23,31
966,3	-22,432
966,5	-20,501
966,7	-22,5
966,9	-22,688
967,1	-24,31
967,3	-25,532
967,5	-24,63
967,7	-25,011
967,9	-24,461
968,1	-22,85
968,3	-21,123
968,5	-22,775
968,7	-20,52
968,9	-19,792
969,1	-18,242
969,3	-16,277
969,5	-16,673
969,7	-16,243
969,9	-13,376
970,2	-12
970,4	-11,415
970,6	-10,767
970,8	-12,132
971	-10,631
971,2	-10,706
971,4	-10,174
971,6	-9,405
971,8	-8,636
972	-9,99
972,2	-8,975
972,4	-9,194
972,6	-10,091
972,8	-10,555
973	-9,65
973,2	-9,993
973,4	-9,356
973,6	-9,729
973,8	-11,498
974	-10,925
974,2	-10,861
974,4	-13,316
974,6	-14,742
974,8	-14,142
975	-14,776
975,2	-16,371
975,5	-17,551
975,7	-17,28
975,9	-15,964
976,1	-15,73
976,3	-17,917
976,5	-17,238
976,7	-17,891
976,9	-17,642
977,1	-17,993
977,3	-18,86
977,5	-20,044
977,7	-19,814
977,9	-19,294
978,1	-19,358
978,3	-17,978
978,5	-18,811
978,7	-18,276
978,9	-17,853
979,1	-17,385
979,3	-16,473
979,5	-16,213
979,7	-16,186
979,9	-15,334
980,1	-15,703
980,3	-15,967
980,5	-15,715
980,7	-13,603
980,9	-11,834
981,1	-12,464
981,3	-11,596
981,5	-11,072
981,7	-11,717
981,9	-13,105
982,2	-12,698
982,4	-14,244
982,6	-12,068
982,8	-13,482
983	-12,747
983,2	-12,894
983,4	-12,034
983,6	-12,136
983,8	-9,443
984	-9,854
984,2	-9,473
984,4	-10,288
984,6	-11,989
984,8	-11,917
985	-9,658
985,2	-8,33
985,4	-10,34
985,6	-12,55
985,8	-13,011
986	-11,381
986,2	-10,393
986,4	-10,597
986,6	-8,662
986,8	-8,802
987	-8,074
987,2	-8,968
987,4	-9,846
987,6	-9,748
987,8	-10,054
988	-9,201
988,2	-9,929
988,4	-11,185
988,6	-10,476
988,8	-13,418
989	-11,819
989,2	-12,83
989,4	-12,388
989,6	-12,852
989,8	-13,463
990	-13,738
990,2	-13,882
990,4	-15,055
990,6	-13,772
990,8	-12,362
991	-12,17
991,3	-13,705
991,5	-14,727
991,7	-14,832
991,9	-14,01
992,1	-14,429
992,3	-14,353
992,5	-15,006
992,7	-14,142
992,9	-15,153
993,1	-15,485
993,3	-16,635
993,5	-17,046
993,7	-15,356
993,9	-15,247
994,1	-15,718
994,3	-15,1
994,5	-13,81
994,7	-13,331
994,9	-13,192
995,1	-12,426
995,3	-12,637
995,5	-11,536
995,7	-11,834
995,9	-10,819
996,1	-10,604
996,3	-13,309
996,5	-13,701
996,7	-14,538
996,9	-15,379
997,1	-16,978
997,3	-18,713
997,5	-19,554
997,7	-18,936
997,9	-18,781
998,1	-16,752
998,3	-17,416
998,5	-18,087
998,7	-18,781
998,9	-17,487
999,1	-17,495
999,3	-16,956
999,5	-18,249
999,7	-20,546
999,9	-22,39
1000,1	-23,197
1000,3	-23,065
1000,5	-23,552
1000,7	-23,876
1000,9	-23,42
1001,1	-23,936
1001,3	-23,152
1001,5	-24,457
1001,7	-24,751
1001,9	-25,264
1002,1	-25,641
1002,3	-25,735
1002,5	-25,634
1002,7	-26,576
1002,9	-26,58
1003,1	-26,98
1003,3	-26,433
1003,5	-24,389
1003,7	-24,498
1003,9	-23,616
1004,1	-23,59
1004,3	-24,842
1004,5	-23,397
1004,7	-23,722
1004,9	-24,038
1005,1	-23,789
1005,3	-23,42
1005,5	-24,068
1005,7	-21,285
1005,9	-20,663
1006,1	-18,909
1006,3	-18,479
1006,5	-18,804
1006,7	-18,656
1006,9	-18,23
1007,1	-19
1007,3	-18,155
1007,5	-17,638
1007,7	-17,989
1007,9	-18,951
1008,1	-18,57
1008,3	-19,35
1008,5	-18,826
1008,7	-15,858
1008,9	-14,934
1009,1	-13,942
1009,3	-15,451
1009,5	-15,07
1009,7	-15,945
1009,9	-15,115
1010,1	-17,046
1010,3	-14,757
1010,5	-15,718
1010,7	-16,488
1010,9	-17,118
1011,1	-17,103
1011,3	-18,419
1011,5	-19,905
1011,7	-20,565
1011,9	-22,217
1012,1	-19,905
1012,3	-20,142
1012,5	-19,992
1012,7	-20,15
1012,9	-20,293
1013,1	-22,126
1013,3	-21,538
1013,5	-21,636
1013,7	-21,791
1013,9	-21,889
1014,1	-20,874
1014,3	-20,919
1014,5	-20,999
1014,7	-21,229
1014,9	-23,661
1015,1	-22,583
1015,3	-23,623
1015,5	-22,518
1015,7	-21,934
1015,9	-20,897
1016,1	-22,085
1016,3	-20,142
1016,5	-23,39
1016,7	-22,085
1016,9	-22,401
1017,1	-23,122
1017,3	-23,54
1017,5	-23,209
1017,7	-22,628
1017,9	-22,296
1018,1	-21,161
1018,3	-22,224
1018,5	-23,209
1018,7	-23,099
1018,9	-22,5
1019,1	-23,525
1019,2	-23,891
1019,4	-24,755
1019,6	-24,894
1019,8	-26,109
1020	-25,102
1020,2	-25,686
1020,4	-23,363
1020,6	-23,725
1020,8	-25,445
1021	-23,91
1021,2	-25,174
1021,4	-23,695
1021,6	-21,549
1021,8	-21,919
1022	-23,326
1022,2	-21,572
1022,4	-21,523
1022,6	-20,972
1022,8	-21,247
1023	-21,647
1023,2	-20,263
1023,4	-19,897
1023,6	-20,267
1023,8	-17,665
1024	-17,487
1024,2	-20,093
1024,4	-19,746
1024,6	-19,241
1024,8	-20,855
1025	-20,716
1025,2	-20,274
1025,4	-17,042
1025,6	-16,397
1025,8	-16,714
1026	-15,839
1026,2	-15,964
1026,4	-15,869
1026,6	-17,921
1026,8	-15,488
1027	-15,168
1027,2	-14,602
1027,4	-14,327
1027,6	-13,742
1027,8	-16,578
1028	-17,461
1028,1	-15,918
1028,3	-17,797
1028,5	-19,935
1028,7	-19,86
1028,9	-21,296
1029,1	-20,606
1029,3	-21,274
1029,5	-20,825
1029,7	-22,028
1029,9	-24,57
1030,1	-21,813
1030,3	-21,206
1030,5	-20,618
1030,7	-20,116
1030,9	-18,17
1031,1	-17,846
1031,3	-17,906
1031,5	-19,286
1031,7	-20,101
1031,9	-19,241
1032,1	-19,482
1032,3	-20,897
1032,5	-20,746
1032,7	-22,224
1032,9	-24,257
1033,1	-23,635
1033,3	-23,774
1033,5	-24,574
1033,7	-27,014
1033,9	-26,064
1034,1	-25,702
1034,3	-25,177
1034,4	-24,672
1034,6	-23,986
1034,8	-23,028
1035	-21,994
1035,2	-22,217
1035,4	-20,746
1035,6	-21,7
1035,8	-20,682
1036	-20,403
1036,2	-23,359
1036,4	-23,216
1036,6	-24,208
1036,8	-25,898
1037	-26,222
1037,2	-27,58
1037,4	-28,489
1037,6	-29,42
1037,8	-28,262
1038	-29,115
1038,2	-28,817
1038,4	-27,897
1038,6	-27,316
1038,8	-26,109
1039	-24,027
1039,2	-24,876
1039,4	-25,954
1039,5	-23,68
1039,7	-22,368
1039,9	-21,504
1040,1	-21,734
1040,3	-22,066
1040,5	-21,059
1040,7	-21,858
1040,9	-22,134
1041,1	-24,208
1041,3	-24,706
1041,5	-26,165
1041,7	-25,671
1041,9	-25,215
1042,1	-25,4
1042,3	-24,668
1042,5	-23,946
1042,7	-23,884
1042,9	-22,819
1043,1	-23,525
1043,3	-22,787
1043,5	-21,27
1043,7	-20,256
1043,8	-21,13
1044	-20,548
1044,2	-20,879
1044,4	-20,285
1044,6	-20,865
1044,8	-21,041
1045	-23,756
1045,2	-22,119
