Data from mesure_FLMT021711__6__28.txt Node

Date: Mon Nov 04 11:51:23 CET 2024
User: jordan.swietlicki
Spectrometer: FLMT02171
Trigger mode: 0
Integration Time (sec): 1,000000E-1
Scans to average: 15
Electric dark correction enabled: true
Nonlinearity correction enabled: false
Boxcar width: 15
XAxis mode: Wavelengths
Number of Pixels in Spectrum: 3648
>>>>>Begin Spectral Data<<<<<
194,7	-38,845
194,9	-37,843
195,2	-33,6
195,5	-32,056
195,7	-28,615
196	-27,957
196,2	-26,518
196,5	-28,062
196,8	-26,749
197	-25,925
197,3	-25,897
197,6	-22,857
197,8	-22,765
198,1	-21,248
198,4	-19,86
198,6	-18,686
198,9	-14,239
199,2	-9,909
199,4	-4,81
199,7	1,073
200	1,465
200,2	-0,198
200,5	-0,56
200,7	-0,843
201	0,085
201,3	-0,036
201,5	1,107
201,8	0,598
202,1	2,065
202,3	1,627
202,6	1,873
202,9	1,461
203,1	3,144
203,4	1,891
203,7	0,971
203,9	-0,466
204,2	0,141
204,5	0,677
204,7	1,989
205	2,359
205,2	3,721
205,5	5,399
205,8	5,044
206	8,171
206,3	8,895
206,6	10,445
206,8	11,331
207,1	11,316
207,4	13,556
207,6	15,785
207,9	16,491
208,2	16,095
208,4	17,06
208,7	17,611
208,9	18,916
209,2	19,146
209,5	19,617
209,7	19,674
210	19,708
210,3	19,436
210,5	21,718
210,8	21,986
211,1	21,808
211,3	21,593
211,6	20,537
211,9	21,767
212,1	22,51
212,4	22,8
212,6	22,74
212,9	23,585
213,2	22,065
213,4	21,484
213,7	21,073
214	21,416
214,2	18,705
214,5	18,037
214,8	17,513
215	16,785
215,3	19,481
215,5	19,583
215,8	17,313
216,1	17,158
216,3	18,365
216,6	17,867
216,9	18,286
217,1	18,995
217,4	18,712
217,7	19,078
217,9	16,996
218,2	16,909
218,5	16,291
218,7	14,778
219	15,239
219,2	16,543
219,5	17,143
219,8	18,599
220	18,135
220,3	18,226
220,6	19,425
220,8	18,776
221,1	18,565
221,4	18,565
221,6	19,685
221,9	20,13
222,1	19,176
222,4	19,078
222,7	21,386
222,9	19,116
223,2	18,425
223,5	15,997
223,7	16,577
224	16,004
224,2	14,597
224,5	14,322
224,8	14,326
225	13,579
225,3	13,247
225,6	13,134
225,8	14,247
226,1	15,51
226,4	15,11
226,6	14,073
226,9	15,197
227,1	14,782
227,4	14,002
227,7	11,822
227,9	11,305
228,2	12,335
228,5	11,286
228,7	9,502
229	8,352
229,3	9,34
229,5	12,674
229,8	11,395
230	11,007
230,3	9,721
230,6	10,245
230,8	8,144
231,1	9,287
231,4	8,476
231,6	12,493
231,9	10,83
232,1	12,534
232,4	12,029
232,7	12,214
232,9	12,176
233,2	12,055
233,5	11,648
233,7	12,331
234	10,822
234,2	9,563
234,5	10,634
234,8	13,296
235	12,67
235,3	12,704
235,6	12,659
235,8	14,096
236,1	14,703
236,4	13,315
236,6	15,284
236,9	16,197
237,1	18,18
237,4	17,698
237,7	14,137
237,9	13,387
238,2	12,712
238,5	14,273
238,7	14,454
239	14,892
239,2	14,111
239,5	16,785
239,8	14,13
240	13,851
240,3	16,562
240,6	16,525
240,8	15,748
241,1	16,015
241,3	14,816
241,6	13,568
241,9	11,697
242,1	12,731
242,4	13,7
242,7	12,301
242,9	12,097
243,2	11,622
243,4	11,908
243,7	11,324
244	9,879
244,2	10,287
244,5	10,675
244,8	11,524
245	11,309
245,3	12,625
245,5	11,599
245,8	12,5
246,1	11,972
246,3	11,633
246,6	11,165
246,9	11,988
247,1	11,603
247,4	12,444
247,6	13,127
247,9	12,583
248,2	12,847
248,4	8,914
248,7	9,653
248,9	10,517
249,2	10,098
249,5	10,652
249,7	11,856
250	10,988
250,3	10,196
250,5	9,834
250,8	12,086
251	10,622
251,3	11,403
251,6	13,507
251,8	13,888
252,1	13,662
252,4	11,524
252,6	11,742
252,9	8,974
253,1	7,847
253,4	6,085
253,7	6,96
253,9	7,884
254,2	10,17
254,4	10,539
254,7	11,109
255	11,531
255,2	11,814
255,5	10,645
255,8	8,989
256	9,121
256,3	9,555
256,5	9,627
256,8	9,129
257,1	8,589
257,3	7,922
257,6	9,472
257,8	10,094
258,1	11,773
258,4	12,206
258,6	12,682
258,9	12,063
259,2	10,747
259,4	10,272
259,7	6,689
259,9	5,606
260,2	7,409
260,5	8,978
260,7	8,269
261	9,17
261,2	9,227
261,5	9,2
261,8	9,08
262	10,192
262,3	8,918
262,6	8,167
262,8	6,809
263,1	5,301
263,3	4,158
263,6	4,875
263,9	4,814
264,1	4,264
264,4	5,497
264,6	6,293
264,9	5,584
265,2	6,587
265,4	6,67
265,7	7,469
266	5,968
266,2	7,288
266,5	7,088
266,7	5,493
267	3,49
267,3	4,324
267,5	5,678
267,8	7,873
268	8,586
268,3	7,888
268,6	6,247
268,8	8,141
269,1	6,474
269,3	5,644
269,6	4,905
269,9	4,712
270,1	2,891
270,4	3,543
270,6	4,26
270,9	4,407
271,2	4,139
271,4	2,502
271,7	1,507
272	0,277
272,2	1,669
272,5	-0,062
272,7	0,703
273	1,39
273,3	1,541
273,5	3,181
273,8	0,873
274	1,544
274,3	-0,202
274,6	-0,138
274,8	2,838
275,1	5,052
275,3	6,138
275,6	5,629
275,9	4,645
276,1	5,154
276,4	5,188
276,6	6,613
276,9	5,957
277,2	8,28
277,4	8,669
277,7	11,184
277,9	11,369
278,2	11,297
278,5	12,086
278,7	12,135
279	11,656
279,2	11,724
279,5	13,013
279,8	14,032
280	14,831
280,3	13,198
280,5	12,666
280,8	12,101
281,1	12,037
281,3	12,685
281,6	11,576
281,9	13,345
282,1	13,685
282,4	13,085
282,6	14,228
282,9	12,889
283,2	11,739
283,4	10,671
283,7	10,177
283,9	9,913
284,2	9,868
284,5	8,39
284,7	6,677
285	5,731
285,2	4,105
285,5	5,723
285,8	4,154
286	7,469
286,3	8,884
286,5	7,413
286,8	7,632
287,1	8,706
287,3	8,299
287,6	8,058
287,8	8,065
288,1	6,523
288,4	6,613
288,6	9,642
288,9	9,355
289,1	9,121
289,4	6,934
289,7	7,948
289,9	6,421
290,2	6,945
290,4	8,771
290,7	7,122
290,9	5,278
291,2	6,195
291,5	7,669
291,7	8,439
292	9,925
292,2	9,661
292,5	11,708
292,8	14,145
293	13,805
293,3	14,756
293,5	16,019
293,8	15,895
294,1	13,21
294,3	11,441
294,6	11,075
294,8	11,708
295,1	12,082
295,4	12,402
295,6	13,002
295,9	13,572
296,1	13,07
296,4	13,523
296,7	9,736
296,9	10,396
297,2	9,106
297,4	9,555
297,7	8,156
298	9,412
298,2	8,97
298,5	9,28
298,7	10,766
299	13,01
299,3	12,387
299,5	11,162
299,8	11,426
300	11,154
300,3	11,048
300,5	11,147
300,8	9,344
301,1	11,199
301,3	12,357
301,6	9,959
301,8	8,035
302,1	7,428
302,4	8,065
302,6	8,193
302,9	8,065
303,1	6,983
303,4	7,903
303,7	8,525
303,9	7,296
304,2	8,597
304,4	8,171
304,7	10,313
304,9	8,235
305,2	11,143
305,5	11,659
305,7	11,791
306	12,104
306,2	13,108
306,5	12,225
306,8	10,415
307	8,563
307,3	8,767
307,5	9,016
307,8	7,439
308,1	5,293
308,3	6,417
308,6	5,546
308,8	6,285
309,1	6,428
309,3	6,44
309,6	6,64
309,9	8,092
310,1	8,152
310,4	9,593
310,6	10,475
310,9	8,929
311,2	8,978
311,4	8,782
311,7	9,408
311,9	9,638
312,2	10,124
312,5	10,86
312,7	10,803
313	11,301
313,2	10,622
313,5	10,181
313,7	9,151
314	7,99
314,3	6,153
314,5	7,583
314,8	8,82
315	10,192
315,3	9,381
315,6	8,488
315,8	7,684
316,1	8,058
316,3	6,523
316,6	6,726
316,8	6,579
317,1	4,912
317,4	2,83
317,6	2,898
317,9	2,857
318,1	2,363
318,4	0,809
318,6	0,624
318,9	1,299
319,2	1,548
319,4	0,911
319,7	-0,206
319,9	-0,115
320,2	-0,356
320,5	-0,085
320,7	-0,685
321	-1,152
321,2	-1,971
321,5	-0,322
321,7	0,99
322	1,835
322,3	1,635
322,5	0,647
322,8	-0,617
323	-1,756
323,3	-0,937
323,5	-0,104
323,8	1,65
324,1	3,053
324,3	4,23
324,6	3,34
324,8	4,162
325,1	3,815
325,4	5,584
325,6	5,833
325,9	5,459
326,1	7,073
326,4	7,65
326,6	6,617
326,9	7,722
327,2	7,752
327,4	8,68
327,7	8,729
327,9	9,838
328,2	10,441
328,4	9,238
328,7	11,754
329	12,308
329,2	12,301
329,5	11,082
329,7	10,883
330	10,645
330,2	12,693
330,5	13,756
330,8	14,684
331	16,302
331,3	14,944
331,5	15,046
331,8	13,089
332	11,946
332,3	10,162
332,6	10,702
332,8	9,83
333,1	11,339
333,3	12,274
333,6	13,104
333,8	14,771
334,1	13,964
334,4	13,274
334,6	12,938
334,9	11,478
335,1	10,528
335,4	9,359
335,6	10,471
335,9	8,94
336,2	7,647
336,4	8,012
336,7	5,546
336,9	6,76
337,2	6,5
337,4	6,183
337,7	5,734
338	3,788
338,2	3,902
338,5	2,076
338,7	2,314
339	2,054
339,2	4,667
339,5	2,842
339,8	4,313
340	5,048
340,3	5,859
340,5	6,368
340,8	9,231
341	9,257
341,3	6,798
341,6	5,998
341,8	5,52
342,1	3,611
342,3	3,392
342,6	5,282
342,8	6,775
343,1	7,394
343,4	7,496
343,6	5,727
343,9	7,341
344,1	8,092
344,4	8,141
344,6	7,677
344,9	7,379
345,1	6,938
345,4	6,851
345,7	6,911
345,9	8,672
346,2	7,024
346,4	6,715
346,7	5,335
346,9	5,444
347,2	3,2
347,5	4,452
347,7	4,875
348	4,143
348,2	5,229
348,5	5,161
348,7	6,609
349	5,727
349,2	7,609
349,5	7,963
349,8	7,285
350	8,077
350,3	8,314
350,5	7,417
350,8	6,708
351	7,039
351,3	7,594
351,6	6,711
351,8	4,999
352,1	4,69
352,3	4,701
352,6	5,569
352,8	5,052
353,1	6,168
353,3	5,916
353,6	4,645
353,9	3,739
354,1	3,332
354,4	4,486
354,6	6,417
354,9	5,757
355,1	7,115
355,4	6,791
355,6	6,674
355,9	6,134
356,2	5,931
356,4	6,964
356,7	2,336
356,9	2,974
357,2	2,468
357,4	2,106
357,7	1,725
358	4,377
358,2	3,728
358,5	3,913
358,7	2,597
359	3,392
359,2	3,687
359,5	4,765
359,7	6,677
360	7,533
360,3	8,838
360,5	8,865
360,8	8,51
361	9,619
361,3	9,001
361,5	10,566
361,8	10,603
362	12,138
362,3	11,671
362,6	11,411
362,8	13,719
363,1	13,941
363,3	15,005
363,6	15,574
363,8	18,161
364,1	15,989
364,3	15,665
364,6	17,554
364,8	18,101
365,1	17,373
365,4	19,908
365,6	20,877
365,9	19,414
366,1	21,081
366,4	20,722
366,6	22,374
366,9	22,695
367,1	23,309
367,4	25,814
367,7	25,991
367,9	25,942
368,2	25,395
368,4	23,815
368,7	25,606
368,9	26,153
369,2	24,739
369,4	25,565
369,7	27,715
370	26,866
370,2	26,628
370,5	27,062
370,7	25,678
371	26,821
371,2	26,798
371,5	27,254
371,7	27,006
372	28,718
372,2	28,552
372,5	29,046
372,8	28,925
373	27,658
373,3	24,626
373,5	26,572
373,8	26,153
374	25,406
374,3	27,609
374,5	28,755
374,8	29,827
375	28,982
375,3	28,224
375,6	27,688
375,8	28,276
376,1	29,042
376,3	31,23
376,6	30,302
376,8	28,616
377,1	32,161
377,3	31,147
377,6	29,842
377,8	30,962
378,1	32,602
378,4	31,878
378,6	31,69
378,9	29,423
379,1	30,238
379,4	29,585
379,6	28,733
379,9	27,654
380,1	27,628
380,4	27,183
380,6	27,454
380,9	28,854
381,2	30,098
381,4	29,608
381,7	31,169
381,9	32,444
382,2	31,954
382,4	30,528
382,7	28,363
382,9	28,933
383,2	29,027
383,4	29,559
383,7	31,686
383,9	30,622
384,2	30,671
384,5	32,089
384,7	32,648
385	32,071
385,2	33,289
385,5	34,36
385,7	34,609
386	35,665
386,2	36,834
386,5	35,838
386,7	37,732
387	37,437
387,2	39,101
387,5	41,725
387,8	43,777
388	45,452
388,3	46,817
388,5	48,073
388,8	49,502
389	50,471
389,3	48,786
389,5	48,088
389,8	49,627
390	49,34
390,3	50,396
390,5	51,301
390,8	53,568
391,1	53,907
391,3	54,861
391,6	54,194
391,8	56,442
392,1	55,899
392,3	57,581
392,6	58,961
392,8	60,36
393,1	64,275
393,3	65,919
393,6	66,941
393,8	67,379
394,1	69,962
394,4	73,873
394,6	76,419
394,9	79,142
395,1	80,688
395,4	80,187
395,6	83,019
395,9	84,177
396,1	85,784
396,4	86,904
396,6	89,189
396,9	90,053
397,1	93,417
397,4	97,498
397,6	98,822
397,9	101,842
398,2	105,335
398,4	109,427
398,7	111,35
398,9	113,583
399,2	115,914
399,4	117,95
399,7	119,44
399,9	121,582
400,2	122,702
400,4	125,588
400,7	128,835
400,9	128,79
401,2	131,916
401,4	134,53
401,7	135,725
401,9	136,276
402,2	135,39
402,5	136,419
402,7	135,752
403	137,366
403,2	140,104
403,5	141,043
403,7	142,091
404	143,494
404,2	144,992
404,5	147,843
404,7	151,92
405	154,56
405,2	155,65
405,5	157,603
405,7	159,915
406	161,175
406,2	162,288
406,5	164,147
406,7	164,863
407	165,671
407,3	167,862
407,5	170,053
407,8	172,467
408	172,587
408,3	174,009
408,5	175,114
408,8	175,405
409	177,026
409,3	178,407
409,5	181,349
409,8	182,676
410	186,538
410,3	188,013
410,5	192,768
410,8	192,697
411	193,402
411,3	195,631
411,5	197,573
411,8	198,822
412	199,802
412,3	200,76
412,6	202,122
412,8	202,748
413,1	202,08
413,3	203,204
413,6	203,057
413,8	204,007
414,1	204,064
414,3	204,302
414,6	206,636
414,8	206,519
415,1	205,701
415,3	205,942
415,6	207,752
415,8	209,001
416,1	210,113
416,3	209,529
416,6	211,95
416,8	210,894
417,1	213,466
417,3	211,52
417,6	213,176
417,8	213,994
418,1	215,254
418,4	215,171
418,6	217,339
418,9	218,422
419,1	218,735
419,4	218,973
419,6	219,844
419,9	221,028
420,1	220,081
420,4	219,689
420,6	219,252
420,9	218,976
421,1	219,033
421,4	220,021
421,6	219,452
421,9	220,074
422,1	219,753
422,4	219,976
422,6	222,076
422,9	222,212
423,1	222,322
423,4	223,66
423,6	223,992
423,9	225,663
424,1	227,647
424,4	226,896
424,6	226,485
424,9	224,864
425,1	225,859
425,4	223,721
425,6	224
425,9	222,178
426,2	221,198
426,4	219,606
426,7	219,037
426,9	216,449
427,2	214,066
427,4	212,655
427,7	211,196
427,9	209,514
428,2	209,604
428,4	210,958
428,7	212,61
428,9	213,342
429,2	215,046
429,4	216,563
429,7	216,099
429,9	214,775
430,2	214,601
430,4	214,36
430,7	216,144
430,9	217,177
431,2	216,959
431,4	218,629
431,7	217,894
431,9	217,185
432,2	219,78
432,4	221,145
432,7	222,895
432,9	226,527
433,2	230,415
433,4	230,913
433,7	233,764
433,9	235,854
434,2	237,634
434,4	238,803
434,7	242,246
434,9	246,138
435,2	247,417
435,4	249,284
435,7	252,693
435,9	252,999
436,2	254,175
436,4	255,013
436,7	255,631
436,9	254,613
437,2	255,16
437,4	258,856
437,7	263,43
437,9	266,27
438,2	267,922
438,4	269,88
438,7	271,083
438,9	271,618
439,2	271,818
439,4	271,769
439,7	274,394
439,9	274,794
440,2	275,084
440,5	276,585
440,7	276,868
441	277,69
441,2	279,387
441,5	279,636
441,7	281,051
442	282,476
442,2	284,743
442,5	284,743
442,7	286,949
443	289,371
443,2	292,422
443,5	292,384
443,7	294,956
444	295,424
444,2	297,445
444,5	299,685
444,7	301,88
445	302,944
445,2	303,012
445,5	302,608
445,7	303,544
446	305,218
446,2	307,04
446,5	309,714
446,7	313,802
447	315,684
447,2	318,32
447,5	320,99
447,7	321,424
448	324,038
448,2	326,289
448,5	327,236
448,7	329,616
449	330,449
449,2	331,694
449,5	332,784
449,7	333,41
450	334,805
450,2	338,101
450,5	338,569
450,7	340,817
451	340,972
451,2	343,649
451,5	344,698
451,7	348,069
452	352,388
452,2	353,738
452,5	355,609
452,7	358,686
452,9	361,168
453,2	363,679
453,4	365,89
453,7	368,345
453,9	368,586
454,2	369,408
454,4	368,345
454,7	371,343
454,9	372,942
455,2	373,059
455,4	375,533
455,7	379,452
455,9	379,052
456,2	380,493
456,4	381,907
456,7	384,283
456,9	386,199
457,2	387,689
457,4	392,573
457,7	395,922
457,9	398,064
458,2	400,353
458,4	403,446
458,7	406,802
458,9	408,439
459,2	410,63
459,4	413,504
459,7	415,307
459,9	416,201
460,2	417,336
460,4	418,068
460,7	421,285
460,9	424,094
461,2	425,109
461,4	426,139
461,7	429,254
461,9	431,29
462,2	433,055
462,4	434,119
462,7	436,518
462,9	437,2
463,2	438,354
463,4	437,958
463,7	440,742
463,9	442,778
464,2	443,367
464,4	444,773
464,7	447,643
464,9	448,73
465,2	449,921
465,4	450,231
465,7	453,417
465,9	456,088
466,2	456,352
466,4	457,453
466,6	459,78
466,9	459,893
467,1	459,55
467,4	459,554
467,6	462,831
467,9	463,615
468,1	466,248
468,4	465,648
468,6	465,912
468,9	467,13
469,1	469,178
469,4	471,2
469,6	472,991
469,9	474,632
470,1	477,63
470,4	477,623
470,6	482,318
470,9	485,95
471,1	489,167
471,4	490,894
471,6	493,376
471,9	496,978
472,1	499,946
472,4	501,258
472,6	505,411
472,9	506,489
473,1	509,148
473,4	511,068
473,6	512,573
473,9	514,021
474,1	516,374
474,3	518,49
474,6	523,476
474,8	525,256
475,1	527,64
475,3	529,171
475,6	533,293
475,8	536,035
476,1	540,817
476,3	543,02
476,6	547,097
476,8	549,854
477,1	553,832
477,3	557,181
477,6	562,171
477,8	564,736
478,1	569,224
478,3	571,958
478,6	576,397
478,8	578,162
479,1	580,949
479,3	583,118
479,6	585,807
479,8	588,258
480,1	593,289
480,3	595,899
480,5	599,327
480,8	601,507
481	603,563
481,3	606,667
481,5	609,035
481,8	610,246
482	612,705
482,3	611,441
482,5	611,815
482,8	612,022
483	613,365
483,3	614,802
483,5	617,095
483,8	616,823
484	617,989
484,3	617,166
484,5	618,411
484,8	619,829
485	620,942
485,2	619,942
485,5	622,352
485,7	624,159
486	625,452
486,2	625,581
486,5	630,072
486,7	632,252
487	636,499
487,2	638,226
487,5	640,599
487,7	642,382
488	642,601
488,2	642,56
488,5	643,454
488,7	644,064
489	644,445
489,2	645,984
489,5	648,058
489,7	650,759
489,9	653,467
490,2	656,141
490,4	660,18
490,7	663,254
490,9	665,475
491,2	666,938
491,4	670,431
491,7	674,794
491,9	677,879
492,2	679,912
492,4	680,583
492,7	682,895
492,9	687,282
493,2	688,341
493,4	688,062
493,6	686,991
493,9	687,459
494,1	683,785
494,4	682,993
494,6	681,081
494,9	679,362
495,1	677,683
495,4	676,469
495,6	677,83
495,9	680,293
496,1	681,7
496,4	682,492
496,6	684,178
496,9	687,372
497,1	686,573
497,3	685,026
497,6	684,789
497,8	686,052
498,1	683,378
498,3	681,937
498,6	678,766
498,8	676,574
499,1	675,213
499,3	673,648
499,6	674,402
499,8	673,256
500,1	669,375
500,3	666,788
500,6	663,073
500,8	659,478
501	660,319
501,3	657,596
501,5	654,809
501,8	655,982
502	657,28
502,3	654,511
502,5	652,58
502,8	652,675
503	652,992
503,3	649,729
503,5	645,833
503,8	643,868
504	641,847
504,2	640,617
504,5	637,031
504,7	637,332
505	634,764
505,2	634,67
505,5	634,18
505,7	633,689
506	632,81
506,2	634,847
506,5	634,044
506,7	631,023
506,9	629,069
507,2	626,535
507,4	623,208
507,7	625,219
507,9	624,74
508,2	625,86
508,4	624,645
508,7	621,451
508,9	622,039
509,2	622,375
509,4	621,451
509,7	618,385
509,9	618,634
510,1	617,653
510,4	615,062
510,6	610,77
510,9	610,725
511,1	610,578
511,4	610,133
511,6	608,639
511,9	605,264
512,1	601,998
512,4	599,984
512,6	599,075
512,8	594,492
513,1	589,646
513,3	587,04
513,6	582,428
513,8	577,853
514,1	573,395
514,3	569,544
514,6	566,305
514,8	561,228
515,1	559,678
515,3	554,787
515,5	551,834
515,8	548,62
516	546,41
516,3	543,476
516,5	539,403
516,8	535,382
517	530,563
517,3	528,179
517,5	525,305
517,7	523,186
518	520,53
518,2	519,433
518,5	516,54
518,7	513,666
519	509,473
519,2	506,787
519,5	504,875
519,7	503,548
520	501,187
520,2	499,829
520,4	501,413
520,7	503,088
520,9	502,925
521,2	501,933
521,4	500,828
521,7	503,103
521,9	502,718
522,2	500,033
522,4	502,333
522,6	501,292
522,9	500,885
523,1	499,097
523,4	495,952
523,6	492,901
523,9	492,897
524,1	492,663
524,4	490,849
524,6	489,329
524,8	486,354
525,1	484,249
525,3	483,676
525,6	483,582
525,8	481,945
526,1	480,715
526,3	479,942
526,6	478,505
526,8	476,548
527	477,362
527,3	475,926
527,5	474,504
527,8	472,757
528	469,325
528,3	467,847
528,5	465,313
528,8	462,974
529	461,545
529,2	460,538
529,5	458,456
529,7	459,497
530	457
530,2	456,529
530,5	452,384
530,7	450,525
531	449,258
531,2	449,242
531,4	446,535
531,7	445,976
531,9	444,253
532,2	444,37
532,4	443,084
532,7	443,325
532,9	440,315
533,2	437,46
533,4	434,922
533,6	431,66
533,9	428,609
534,1	426,648
534,4	424,917
534,6	423,17
534,9	419,663
535,1	417,457
535,3	414,194
535,6	412,38
535,8	407,345
536,1	406,248
536,3	406,018
536,6	403,977
536,8	400,376
537,1	399,086
537,3	395,084
537,5	392,267
537,8	388,341
538	387,1
538,3	384,238
538,5	381,115
538,8	378,894
539	375,194
539,2	371,905
539,5	370,121
539,7	368,032
540	366,003
540,2	364,381
540,5	362,623
540,7	361,002
540,9	358,72
541,2	357,302
541,4	358,184
541,7	358,358
541,9	356,714
542,2	350,74
542,4	349,785
542,7	347,032
542,9	346,678
543,1	344,698
543,4	345,98
543,6	343,242
543,9	341,315
544,1	339,271
544,4	336,201
544,6	333,621
544,8	333,048
545,1	330,841
545,3	329,665
545,6	329,578
545,8	329,118
546,1	327,474
546,3	326,527
546,5	326,157
546,8	325,637
547	323,793
547,3	321,122
547,5	318,89
547,8	315,145
548	313,319
548,2	311,63
548,5	308,876
548,7	307,33
549	301,96
549,2	300,843
549,5	297,992
549,7	297,238
549,9	294,549
550,2	292,467
550,4	289,619
550,7	287,907
550,9	282,186
551,2	281,36
551,4	278,494
551,6	276,397
551,9	275,212
552,1	273,312
552,4	270,921
552,6	267,383
552,9	266,191
553,1	262,97
553,3	260,821
553,6	259,237
553,8	255,431
554,1	255,039
554,3	250,951
554,5	248,19
554,8	244,667
555	242,133
555,3	239,255
555,5	237,053
555,8	233,775
556	232,972
556,2	229,144
556,5	227,975
556,7	223,117
557	222,314
557,2	220,455
557,5	220,221
557,7	220,621
557,9	217,279
558,2	215,182
558,4	216,442
558,7	212,678
558,9	212,361
559,2	211,022
559,4	208,805
559,6	208,616
559,9	207,285
560,1	205,972
560,4	205,082
560,6	203,909
560,8	201,254
561,1	199,176
561,3	200,315
561,6	196,902
561,8	196,031
562,1	194,435
562,3	194,805
562,5	193,956
562,8	194,424
563	191,207
563,3	191,12
563,5	189,333
563,7	188,85
564	187,04
564,2	185,569
564,5	183,717
564,7	183,332
565	181,1
565,2	177,411
565,4	177,939
565,7	178,633
565,9	175,337
566,2	174,417
566,4	171,743
566,6	172,357
566,9	172,354
567,1	171,305
567,4	169,038
567,6	169,465
567,9	166,327
568,1	166,738
568,3	166,063
568,6	165,995
568,8	164,524
569,1	162,197
569,3	160,511
569,5	160,338
569,8	158,697
570	158,395
570,3	157,332
570,5	158,414
570,7	157,585
571	157,321
571,2	157,758
571,5	157,207
571,7	155,929
572	155,48
572,2	153,017
572,4	154,062
572,7	155,065
572,9	155,337
573,2	152,946
573,4	151,083
573,6	150,11
573,9	150,291
574,1	147,473
574,4	143,86
574,6	143,2
574,8	141,684
575,1	140,59
575,3	140,655
575,6	138,361
575,8	137,66
576	135,918
576,3	133,406
576,5	136,389
576,8	137,671
577	137,947
577,3	138,644
577,5	137,494
577,7	136,446
578	135,665
578,2	134,613
578,5	132,255
578,7	131,931
578,9	132,059
579,2	132,082
579,4	130,411
579,7	129,921
579,9	127,534
580,1	126,248
580,4	124,196
580,6	123,947
580,9	126,24
581,1	125,742
581,3	124,562
581,6	120,934
581,8	121,963
582,1	120,387
582,3	120,843
582,5	120,225
582,8	120,017
583	121,137
583,3	122,359
583,5	120,911
583,7	121,397
584	118,889
584,2	117,958
584,5	116,031
584,7	114,556
584,9	114,277
585,2	113,232
585,4	112,802
585,7	111,271
585,9	110,294
586,1	108,888
586,4	106,806
586,6	106,953
586,9	105,814
587,1	105,259
587,3	104,35
587,6	103,268
587,8	102,276
588,1	101,066
588,3	98,275
588,5	97,46
588,8	95,865
589	97,856
589,3	96,57
589,5	95,699
589,7	96,974
590	95,736
590,2	95,801
590,5	92,61
590,7	89,642
590,9	90,924
591,2	90,268
591,4	89,427
591,7	90,943
591,9	91,705
592,1	90,871
592,4	91,041
592,6	89,774
592,9	89,204
593,1	89,793
593,3	90,094
593,6	89,404
593,8	90,079
594,1	89,664
594,3	90,208
594,5	89,91
594,8	90,385
595	90,664
595,3	91,49
595,5	93,609
595,7	94,665
596	94,873
596,2	95,224
596,4	97,532
596,7	98,067
596,9	98,067
597,2	95,39
597,4	96,385
597,6	94,601
597,9	94,217
598,1	94,745
598,4	95,774
598,6	96,166
598,8	95,465
599,1	92,527
599,3	92,836
599,6	92,584
599,8	92,508
600	93,768
600,3	94,665
600,5	92,946
600,7	93,753
601	94,809
601,2	94,281
601,5	93,975
601,7	94,051
601,9	94,53
602,2	95,295
602,4	94,548
602,7	93,636
602,9	92,252
603,1	92,915
603,4	93,557
603,6	94,62
603,9	93,564
604,1	93,609
604,3	94,613
604,6	95,186
604,8	95,076
605	96,725
605,3	97,019
605,5	97,324
605,8	95,129
606	95,786
606,2	96,374
606,5	96,08
606,7	94,024
607	93,323
607,2	91,297
607,4	89,563
607,7	87,964
607,9	87,575
608,1	88,163
608,4	87,492
608,6	87,266
608,9	86,561
609,1	85,105
609,3	83,792
609,6	82,457
609,8	83,211
610,1	83,396
610,3	80,368
610,5	78,573
610,8	77,562
611	76,796
611,2	75,363
611,5	74,846
611,7	73,119
612	73,342
612,2	71,893
612,4	70,29
612,7	69,804
612,9	70,543
613,1	69,419
613,4	68,265
613,6	67,601
613,9	68,163
614,1	67,458
614,3	67,918
614,6	68,944
614,8	69,891
615	69,551
615,3	70,121
615,5	69,702
615,8	67,251
616	67,089
616,2	66,349
616,5	68,838
616,7	69,514
616,9	68,627
617,2	67,386
617,4	67,179
617,7	68,97
617,9	68,593
618,1	66,874
618,4	65,293
618,6	64,256
618,8	65,923
619,1	66,945
619,3	66,21
619,6	65,667
619,8	64,516
620	64,064
620,3	62,985
620,5	63,69
620,7	61,684
621	60,613
621,2	59,406
621,5	59,448
621,7	59,923
621,9	58,64
622,2	57,369
622,4	58,052
622,6	57,879
622,9	56,144
623,1	57,686
623,4	56,883
623,6	57,358
623,8	56,713
624,1	56,132
624,3	57,098
624,5	58,607
624,8	58,848
625	58,011
625,3	58,286
625,5	59,531
625,7	61,703
626	61,786
626,2	60,104
626,4	58,788
626,7	58,301
626,9	59,923
627,1	61,235
627,4	61,198
627,6	60,281
627,9	60,1
628,1	60,111
628,3	60,443
628,6	60,575
628,8	61,45
629	60,847
629,3	62,148
629,5	63,626
629,8	61,767
630	62,333
630,2	61,435
630,5	61,861
630,7	61,748
630,9	61,771
631,2	60,04
631,4	59,919
631,6	58,339
631,9	56,117
632,1	55,28
632,4	56,257
632,6	56,049
632,8	55,857
633,1	54,65
633,3	55,061
633,5	53,353
633,8	53,545
634	55,593
634,2	55,058
634,5	53,383
634,7	55,012
635	54,269
635,2	55,042
635,4	56,513
635,7	57,735
635,9	57,177
636,1	56,717
636,4	55,812
636,6	53,059
636,8	52,263
637,1	53,666
637,3	53,062
637,5	53,922
637,8	53,394
638	54,19
638,3	53,289
638,5	54,186
638,7	53,213
639	55,208
639,2	56,513
639,4	55,114
639,7	54,175
639,9	52,55
640,1	55,714
640,4	57,777
640,6	56,728
640,9	58,082
641,1	58,969
641,3	56,879
641,6	56,464
641,8	57,603
642	55,684
642,3	55,163
642,5	54,567
642,7	52,391
643	53,266
643,2	52,221
643,4	50,656
643,7	50,928
643,9	51,965
644,1	50,849
644,4	51,46
644,6	51,056
644,9	52,135
645,1	51,603
645,3	51,082
645,6	50,517
645,8	49,359
646	50,664
646,3	49,042
646,5	48,401
646,7	50,358
647	50,603
647,2	51,173
647,4	48,043
647,7	45,87
647,9	47,364
648,1	48,035
648,4	46,945
648,6	47,337
648,9	47,375
649,1	47,813
649,3	49,717
649,6	50,841
649,8	50,834
650	51,641
650,3	49,05
650,5	49,951
650,7	50,562
651	49,951
651,2	52,101
651,4	51,663
651,7	49,382
651,9	48,623
652,1	48,348
652,4	48,352
652,6	48,831
652,8	50,162
653,1	49,585
653,3	49,05
653,5	48,865
653,8	48,013
654	48,156
654,3	47,066
654,5	47,213
654,7	45,735
655	43,97
655,2	42,781
655,4	41,005
655,7	41,507
655,9	42,495
656,1	43,585
656,4	42,171
656,6	40,338
656,8	44,867
657,1	46,485
657,3	46,27
657,5	46,202
657,8	46,911
658	47,439
658,2	48,005
658,5	45,346
658,7	45,716
658,9	46,821
659,2	46,542
659,4	44,694
659,6	44,396
659,9	44,584
660,1	42,853
660,3	43,54
660,6	42,155
660,8	42,514
661	42,284
661,3	40,632
661,5	39,304
661,8	39,478
662	40,066
662,2	40,903
662,5	40,07
662,7	41,937
662,9	40,349
663,2	39,327
663,4	36,181
663,6	35,212
663,9	36,909
664,1	31,95
664,3	30,475
664,6	30,95
664,8	29,668
665	29,728
665,3	29,242
665,5	28,854
665,7	30,404
666	30,886
666,2	29,389
666,4	30,66
666,7	30,551
666,9	29,974
667,1	29,227
667,4	30,253
667,6	29,472
667,8	29,732
668,1	29,593
668,3	29,94
668,5	30,215
668,8	31,362
669	30,445
669,2	32,274
669,5	32,908
669,7	33,338
669,9	31,207
670,2	31,384
670,4	31,064
670,6	31,671
670,9	32,979
671,1	30,019
671,3	30,426
671,6	28,895
671,8	29,133
672	30,355
672,3	30,539
672,5	31,735
672,7	30,596
673	31,807
673,2	30,347
673,4	33,225
673,7	33,096
673,9	33,002
674,1	32,998
674,4	32,576
674,6	31,761
674,8	31,516
675,1	31,033
675,3	29,612
675,5	30,453
675,8	29,827
676	30,241
676,2	32,565
676,5	30,818
676,7	31,516
676,9	31,486
677,2	32,006
677,4	32,018
677,6	32,41
677,9	33,293
678,1	33,044
678,3	34,801
678,5	33,538
678,8	33,142
679	32,478
679,2	32,659
679,5	33,134
679,7	31,418
679,9	32,693
680,2	30,754
680,4	33,594
680,6	31,218
680,9	31,475
681,1	31,788
681,3	33,979
681,6	33,319
681,8	34,794
682	34,997
682,3	37,166
682,5	38,26
682,7	36,593
683	36,653
683,2	35,216
683,4	33,345
683,7	32,474
683,9	34,235
684,1	35,088
684,4	35,785
684,6	35,488
684,8	33,9
685,1	33,213
685,3	32,353
685,5	32,685
685,7	32,949
686	33,734
686,2	33,326
686,4	34,047
686,7	31,411
686,9	31,282
687,1	30,886
687,4	30,698
687,6	28,408
687,8	28,605
688,1	28,359
688,3	27,903
688,5	26,198
688,8	28,865
689	27,039
689,2	28,744
689,5	26,768
689,7	25,599
689,9	24,471
690,2	24,618
690,4	25,233
690,6	24,233
690,8	25,267
691,1	21,895
691,3	20,477
691,5	19,448
691,8	18,38
692	20,658
692,2	22,574
692,5	21,929
692,7	21,714
692,9	21,544
693,2	19,708
693,4	19,866
693,6	18,071
693,9	19,165
694,1	19,976
694,3	20,918
694,5	20,651
694,8	20,341
695	20,111
695,2	19,089
695,5	18,904
695,7	18,972
695,9	18,471
696,2	17,818
696,4	16,502
696,6	16,8
696,9	17,09
697,1	21,043
697,3	22,495
697,6	23,03
697,8	23,215
698	24,086
698,2	23,687
698,5	25,176
698,7	25,339
698,9	27,56
699,2	27,051
699,4	24,049
699,6	25,463
699,9	23,242
700,1	23,434
700,3	25,9
700,6	26,749
700,8	28,307
701	28,533
701,2	27,869
701,5	27,073
701,7	27,496
701,9	27,345
702,2	28,842
702,4	30,298
702,6	31,094
702,9	30,102
703,1	27,454
703,3	29,928
703,6	30,592
703,8	30,177
704	30,211
704,2	26,176
704,5	25,267
704,7	25,388
704,9	25,463
705,2	24,456
705,4	25,667
705,6	24,89
705,9	25,335
706,1	25,003
706,3	23,045
706,5	22,193
706,8	21,62
707	22,668
707,2	23,106
707,5	21,605
707,7	19,7
707,9	18,674
708,2	17,875
708,4	17,449
708,6	16,419
708,8	15,423
709,1	15,073
709,3	13,006
709,5	11,531
709,8	11,527
710	12,878
710,2	13,187
710,5	12,187
710,7	10,332
710,9	11,316
711,1	10,649
711,4	11,354
711,6	10,894
711,8	10,856
712,1	11,705
712,3	12,044
712,5	11,803
712,8	12,863
713	11,316
713,2	10,072
713,4	11,301
713,7	12,919
713,9	12,474
714,1	13,968
714,4	13,187
714,6	12,783
714,8	12,127
715,1	12,308
715,3	12,191
715,5	11,18
715,7	11,098
716	9,94
716,2	8,906
716,4	9,242
716,7	8,25
716,9	9,4
717,1	7,628
717,3	8,85
717,6	7,922
717,8	8,865
718	7,22
718,3	7,303
718,5	8,129
718,7	8,812
718,9	8,82
719,2	7,349
719,4	6,964
719,6	5,474
719,9	4,177
720,1	4,965
720,3	5,146
720,6	2,529
720,8	1,179
721	1,518
721,2	-0,669
721,5	-0,801
721,7	-1,073
721,9	-0,662
722,2	-1,895
722,4	-1,884
722,6	0,405
722,8	1,077
723,1	3,37
723,3	5,354
723,5	4,671
723,8	5,784
724	3,573
724,2	3,042
724,4	4,018
724,7	5,878
724,9	6,164
725,1	7,692
725,4	10,411
725,6	8,684
725,8	7,963
726	6,907
726,3	6,146
726,5	5,674
726,7	6,421
727	4,079
727,2	3,264
727,4	3,547
727,6	5,131
727,9	6,191
728,1	5,388
728,3	6,025
728,6	6,911
728,8	8,107
729	7,383
729,2	9,299
729,5	9,125
729,7	7,922
729,9	7,466
730,2	7,104
730,4	6,749
730,6	7,564
730,8	6,5
731,1	7,56
731,3	8,239
731,5	6,172
731,7	3,713
732	3,883
732,2	3,208
732,4	0,632
732,7	1,382
732,9	0,564
733,1	0,277
733,3	0,945
733,6	1,39
733,8	1,443
734	5,889
734,3	7,122
734,5	9,05
734,7	10,011
734,9	8,703
735,2	10,649
735,4	10,517
735,6	10,008
735,9	10,264
736,1	11,988
736,3	12,086
736,5	12,131
736,8	12,301
737	11,701
737,2	11,033
737,4	9,823
737,7	10,087
737,9	12,9
738,1	12,067
738,4	12,263
738,6	12,968
738,8	14,032
739	12,161
739,3	12,655
739,5	12,274
739,7	12,749
739,9	15,751
740,2	17,498
740,4	18,146
740,6	17,596
740,9	18,214
741,1	16,864
741,3	14,944
741,5	12,689
741,8	12,229
742	13,764
742,2	13,232
742,4	13,398
742,7	14,518
742,9	14,869
743,1	13,368
743,4	11,897
743,6	12,074
743,8	12,244
744	13,639
744,3	14,711
744,5	15,506
744,7	15,959
744,9	15,374
745,2	18,459
745,4	17,713
745,6	16,838
745,8	17,151
746,1	19,255
746,3	22,027
746,5	25,082
746,8	24,441
747	23,34
747,2	24,105
747,4	24,943
747,7	25,448
747,9	25,833
748,1	24,294
748,3	26,523
748,6	27,435
748,8	26,172
749	25,938
749,2	24,909
749,5	25,022
749,7	24,396
749,9	23,788
750,2	26,508
750,4	27,352
750,6	27,688
750,8	27,503
751,1	27,262
751,3	26,157
751,5	27,526
751,7	28,597
752	28,359
752,2	27,104
752,4	27,292
752,6	27,677
752,9	27,831
753,1	26,089
753,3	24,381
753,5	23,438
753,8	24,807
754	24,207
754,2	23,969
754,4	23,717
754,7	24,064
754,9	23,883
755,1	24,958
755,4	24,43
755,6	25,342
755,8	26,444
756	25,176
756,3	25,101
756,5	24,264
756,7	23,668
756,9	23,969
757,2	22,582
757,4	21,978
757,6	19,704
757,8	18,852
758,1	19,832
758,3	21,774
758,5	20,089
758,7	16,864
759	14,028
759,2	14,447
759,4	14,386
759,6	15,001
759,9	14,228
760,1	16,136
760,3	14,552
760,5	13,79
760,8	12,55
761	12,142
761,2	10,966
761,4	11,75
761,7	11,697
761,9	12,346
762,1	11,018
762,3	11,237
762,6	9,159
762,8	8,654
763	8,782
763,2	11,558
763,5	12,089
763,7	11,15
763,9	11,35
764,1	10,717
764,4	10,155
764,6	12,384
764,8	13,492
765	12,044
765,3	10,004
765,5	10,249
765,7	11,414
765,9	13,315
766,2	12,591
766,4	13,749
766,6	11,795
766,8	12,534
767,1	11,237
767,3	11,275
767,5	11,211
767,7	13,217
768	12,764
768,2	14,028
768,4	13,255
768,6	11,939
768,9	10,509
769,1	11,712
769,3	11,84
769,5	12,142
769,8	13,281
770	14,356
770,2	12,04
770,4	13,206
770,7	13,873
770,9	14,126
771,1	14,213
771,3	16,461
771,6	16,604
771,8	16,868
772	16,185
772,2	14,956
772,5	15,827
772,7	16,83
772,9	16,438
773,1	14,854
773,4	15,499
773,6	17,984
773,8	16,362
774	16,672
774,3	17,249
774,5	16,74
774,7	15,34
774,9	15,804
775,2	15,329
775,4	16,283
775,6	16,042
775,8	16,883
776	18,535
776,3	18,682
776,5	18,686
776,7	18,297
776,9	18,912
777,2	19,493
777,4	18,199
777,6	18,112
777,8	17,577
778,1	18,094
778,3	16,792
778,5	15,695
778,7	16,374
779	16,657
779,2	18,361
779,4	18,229
779,6	17,992
779,9	17,215
780,1	18,742
780,3	17,799
780,5	16,061
780,7	16,615
781	17,351
781,2	17,309
781,4	16,691
781,6	16,581
781,9	17,501
782,1	15,748
782,3	14,428
782,5	14,224
782,8	13,809
783	13,213
783,2	12,527
783,4	12,591
783,7	11,471
783,9	9,864
784,1	8,94
784,3	8,039
784,5	7,677
784,8	6,553
785	5,308
785,2	4,218
785,4	4,931
785,7	3,204
785,9	4,294
786,1	3,841
786,3	3,905
786,6	3,837
786,8	5,478
787	5,512
787,2	6,685
787,4	7,251
787,7	8,031
787,9	7,956
788,1	7,684
788,3	8,111
788,6	7,398
788,8	5,218
789	4,886
789,2	3,936
789,5	3,845
789,7	2,83
789,9	1,559
790,1	0,025
790,3	0,383
790,6	1,725
790,8	2,359
791	2,401
791,2	4,705
791,5	6,979
791,7	7,171
791,9	8,22
792,1	9,317
792,3	7,85
792,6	7,896
792,8	6,504
793	8,586
793,2	8,895
793,5	8,137
793,7	8,099
793,9	6,511
794,1	5,203
794,3	5,09
794,6	5,908
794,8	4,893
795	5,976
795,2	5,817
795,5	6,923
795,7	7,07
795,9	8,563
796,1	8,25
796,3	8,193
796,6	10,275
796,8	10,92
797	12,798
797,2	13,507
797,5	14,035
797,7	14,714
797,9	13,624
798,1	13,866
798,3	21,077
798,6	22,336
798,8	24,445
799	24,988
799,2	25,953
799,5	26,496
799,7	27,643
799,9	25,723
800,1	24,392
800,3	24,218
800,6	23,819
800,8	24,663
801	25,139
801,2	24,482
801,5	24,316
801,7	23,826
801,9	22,653
802,1	23,928
802,3	23,894
802,6	23,343
802,8	22,404
803	24,056
803,2	25,459
803,4	23,487
803,7	23,174
803,9	22,857
804,1	22,193
804,3	21,428
804,6	20,764
804,8	23,068
805	20,718
805,2	11,494
805,4	10,132
805,7	7,601
805,9	5,421
806,1	6,417
806,3	6,425
806,5	6,063
806,8	5,44
807	6,361
807,2	7,156
807,4	6,692
807,6	4,803
807,9	3,909
808,1	4,573
808,3	4,188
808,5	7,051
808,8	8,688
809	7,153
809,2	8,269
809,4	9,529
809,6	8,665
809,9	6,576
810,1	5,746
810,3	7,322
810,5	7,609
810,7	5,919
811	4,792
811,2	3,913
811,4	4,403
811,6	3,66
811,8	4,701
812,1	5,233
812,3	5,429
812,5	5,244
812,7	6,338
812,9	5,685
813,2	6,911
813,4	5,38
813,6	5,998
813,8	4,81
814	4,249
814,3	3,781
814,5	6,64
814,7	6,655
814,9	4,739
815,2	4,999
815,4	2,864
815,6	1,959
815,8	1,307
816	0,383
816,3	0,277
816,5	-0,334
816,7	1,541
816,9	2,284
817,1	1,307
817,4	-0,16
817,6	0,862
817,8	1,348
818	0,933
818,2	0,157
818,5	-1,197
818,7	-2,261
818,9	-2,876
819,1	-1,639
819,3	-0,835
819,6	0,662
819,8	2,955
820	0,809
820,2	0,809
820,4	0,862
820,7	0,756
820,9	1,627
821,1	2,683
821,3	0,296
821,5	0,847
821,8	2,238
822	0,899
822,2	1,774
822,4	0,568
822,6	1,352
822,9	1,416
823,1	-0,028
823,3	0,998
823,5	-0,209
823,7	0,217
823,9	0,138
824,2	0,081
824,4	-0,59
824,6	-0,319
824,8	-0,869
825	-0,888
825,3	-1,288
825,5	-0,402
825,7	0,228
825,9	-0,956
826,1	-1,714
826,4	-3,423
826,6	-6,813
826,8	-7,153
827	-6,828
827,2	-6,266
827,5	-5,124
827,7	-4,773
827,9	-4,543
828,1	-2,951
828,3	-3,37
828,6	-3,03
828,8	-2,944
829	-5,044
829,2	-5,108
829,4	-3,49
829,6	-4,037
829,9	-3,385
830,1	-3,717
830,3	-3,977
830,5	-3,834
830,7	-4,354
831	-4,166
831,2	-4,799
831,4	-5,444
831,6	-3,826
831,8	-4,018
832,1	-3,37
832,3	-3,147
832,5	-2,638
832,7	-3,581
832,9	-3,374
833,1	-2,355
833,4	-1,265
833,6	0,805
833,8	3,061
834	2,506
834,2	3,049
834,5	1,563
834,7	-0,119
834,9	-0,726
835,1	-0,945
835,3	-1,929
835,5	-1,544
835,8	-0,115
836	1,152
836,2	-0,677
836,4	0,187
836,6	-0,458
836,9	0,021
837,1	0,398
837,3	0,247
837,5	-0,085
837,7	-0,575
837,9	0,04
838,2	1,703
838,4	0,617
838,6	2,216
838,8	2,578
839	2,212
839,3	2,325
839,5	3,966
839,7	3,864
839,9	3,185
840,1	2,457
840,3	3,653
840,6	1,341
840,8	2,619
841	1,665
841,2	2,88
841,4	3,577
841,7	3,788
841,9	3,061
842,1	3,358
842,3	3,408
842,5	3,43
842,7	3,238
843	2,789
843,2	1,054
843,4	3,336
843,6	3,106
843,8	4,113
844	3,147
844,3	2,864
844,5	2,917
844,7	1,823
844,9	1,356
845,1	1,22
845,4	-0,232
845,6	0,975
845,8	1,986
846	0,398
846,2	-0,899
846,4	0,726
846,7	0,677
846,9	1,016
847,1	-0,949
847,3	0,715
847,5	-0,583
847,7	-0,402
848	-2,167
848,2	-2,167
848,4	-2,227
848,6	-1,876
848,8	-2,061
849	-2,385
849,3	-2,238
849,5	-2,012
849,7	-2,431
849,9	-3,14
850,1	-6,153
850,3	-4,162
850,6	-4,554
850,8	-5,557
851	-5,482
851,2	-4,95
851,4	-4,905
851,6	-6,315
851,9	-5,825
852,1	-4,392
852,3	-7,371
852,5	-8,061
852,7	-7,062
852,9	-5,727
853,2	-6,33
853,4	-6,236
853,6	-6,904
853,8	-8,344
854	-10,69
854,2	-9,366
854,5	-9,461
854,7	-9,593
854,9	-9,167
855,1	-9,17
855,3	-9,11
855,5	-7,665
855,8	-8,02
856	-10,143
856,2	-11,795
856,4	-9,593
856,6	-8,201
856,8	-7,13
857,1	-6,187
857,3	-7,066
857,5	-5,946
857,7	-4,354
857,9	-3,845
858,1	-1,197
858,4	-1,714
858,6	-1,842
858,8	-2,404
859	-1,069
859,2	-1,955
859,4	-1,793
859,7	-2,88
859,9	-3,325
860,1	-3,434
860,3	-2,929
860,5	-2,714
860,7	-2,318
860,9	-4,305
861,2	-3,596
861,4	-2,789
861,6	-2,088
861,8	-1,869
862	-1,416
862,2	-2,084
862,5	-1,586
862,7	-0,092
862,9	0,779
863,1	0,488
863,3	0,915
863,5	1,243
863,8	-1,62
864	-0,107
864,2	0,7
864,4	-0,206
864,6	-1,175
864,8	-3,136
865	-2,095
865,3	-0,93
865,5	-1,488
865,7	-0,654
865,9	0,405
866,1	-0,903
866,3	-0,341
866,6	-0,07
866,8	-0,651
867	-1,514
867,2	-1,077
867,4	-0,179
867,6	0,296
867,8	-0,507
868,1	-0,043
868,3	-0,903
868,5	-1,65
868,7	-2,661
868,9	-2,83
869,1	-2,186
869,3	-2,578
869,6	-3,423
869,8	-4,29
870	-5,278
870,2	-5,074
870,4	-4,875
870,6	-5,553
870,9	-6,757
871,1	-8,107
871,3	-8,292
871,5	-8,288
871,7	-6,659
871,9	-8,808
872,1	-9,397
872,4	-10,464
872,6	-11,433
872,8	-10,132
873	-10,66
873,2	-11,35
873,4	-9,762
873,6	-9,14
873,9	-8,412
874,1	-9,084
874,3	-10,566
874,5	-11,678
874,7	-12,847
874,9	-12,976
875,1	-12,64
875,4	-12,768
875,6	-13,564
875,8	-13,13
876	-10,207
876,2	-9,114
876,4	-9,959
876,6	-8,823
876,9	-8,473
877,1	-8,672
877,3	-8,955
877,5	-10,505
877,7	-8,661
877,9	-7,198
878,1	-8,246
878,4	-10,045
878,6	-8,469
878,8	-7,681
879	-8,216
879,2	-7,055
879,4	-8,646
879,6	-7,601
879,9	-8,371
880,1	-8,612
880,3	-9,219
880,5	-8,88
880,7	-7,428
880,9	-6,225
881,1	-4,976
881,3	-4,147
881,6	-4,128
881,8	-5,437
882	-4,169
882,2	-2,367
882,4	-3,226
882,6	-6,202
882,8	-6,545
883,1	-6,794
883,3	-7,496
883,5	-8,586
883,7	-7,285
883,9	-7,692
884,1	-6,24
884,3	-8,046
884,6	-9,796
884,8	-7,435
885	-7,767
885,2	-9,102
885,4	-9,408
885,6	-7,62
885,8	-7,375
886	-6,066
886,3	-6,647
886,5	-6,127
886,7	-6,587
886,9	-4,667
887,1	-5,734
887,3	-7,081
887,5	-6,496
887,8	-6,315
888	-7,352
888,2	-7,39
888,4	-6,753
888,6	-6,858
888,8	-8,42
889	-7,816
889,2	-7,839
889,5	-8,62
889,7	-7,688
889,9	-6,376
890,1	-6,515
890,3	-7,269
890,5	-6,866
890,7	-6,406
890,9	-5,983
891,2	-5,127
891,4	-6,64
891,6	-5,738
891,8	-4,777
892	-5,678
892,2	-6,915
892,4	-8,774
892,6	-9,325
892,9	-9,894
893,1	-9,144
893,3	-7,963
893,5	-9,155
893,7	-9,325
893,9	-9,174
894,1	-10,023
894,3	-10,313
894,6	-9,966
894,8	-9,996
895	-9,012
895,2	-8,623
895,4	-7,616
895,6	-9,472
895,8	-8,846
896	-7,122
896,3	-7,533
896,5	-8,333
896,7	-7,126
896,9	-7,115
897,1	-6,798
897,3	-7,767
897,5	-6,979
897,7	-6,632
898	-4,501
898,2	-5,863
898,4	-6,692
898,6	-5,761
898,8	-6,353
899	-4,965
899,2	-3,645
899,4	-2,02
899,6	-2,759
899,9	-4,407
900,1	-2,533
900,3	-1,548
900,5	-0,458
900,7	-0,262
900,9	-1,639
901,1	-1,096
901,3	-1,725
901,6	-2,088
901,8	-2,035
902	-3,547
902,2	-3,14
902,4	-3,962
902,6	-5,652
902,8	-6,413
903	-7,613
903,2	-9,295
903,5	-9,913
903,7	-11,158
903,9	-11,26
904,1	-11,297
904,3	-10,807
904,5	-12,138
904,7	-10,615
904,9	-10,588
905,1	-10,656
905,4	-8,284
905,6	-8,691
905,8	-10,023
906	-10,758
906,2	-10,226
906,4	-10,158
906,6	-11,622
906,8	-10,558
907	-11,335
907,3	-11,807
907,5	-12,086
907,7	-12,591
907,9	-11,113
908,1	-11,414
908,3	-12,991
908,5	-12,097
908,7	-11,644
908,9	-12,391
909,2	-13,304
909,4	-11,705
909,6	-10,871
909,8	-10,92
910	-11,173
910,2	-10,166
910,4	-9,755
910,6	-8,171
910,8	-10,43
911,1	-7,937
911,3	-6,915
911,5	-6,398
911,7	-6,474
911,9	-6,87
912,1	-6,274
912,3	-6,387
912,5	-5,282
912,7	-5,252
912,9	-4,777
913,2	-4,878
913,4	-6,99
913,6	-5,18
913,8	-4,422
914	-1,857
914,2	-1,567
914,4	-1,865
914,6	-2,585
914,8	-1,567
915,1	-0,043
915,3	0,104
915,5	2,216
915,7	3,136
915,9	3,11
916,1	2,355
916,3	2,155
916,5	2,48
916,7	2,838
916,9	4,007
917,2	2,333
917,4	4,92
917,6	2,016
917,8	0,982
918	-0,843
918,2	-0,722
918,4	-2,849
918,6	-3,181
918,8	-3,042
919	-4,339
919,2	-2,925
919,5	-2,431
919,7	-3,83
919,9	-3,853
920,1	-5,844
920,3	-7,111
920,5	-7,963
920,7	-7,307
920,9	-8,141
921,1	-6,741
921,3	-7,847
921,6	-9,691
921,8	-10,166
922	-11,837
922,2	-13,421
922,4	-13,496
922,6	-13,775
922,8	-11,429
923	-11,15
923,2	-11,407
923,4	-13,145
923,6	-13,357
923,9	-14,839
924,1	-14,937
924,3	-16,012
924,5	-14,145
924,7	-14,624
924,9	-13,413
925,1	-13,474
925,3	-12,5
925,5	-12,384
925,7	-14,665
925,9	-15,34
926,2	-14,013
926,4	-13,3
926,6	-12,365
926,8	-11,84
927	-12,723
927,2	-12,599
927,4	-13,134
927,6	-14,499
927,8	-13,338
928	-14,149
928,2	-13,779
928,5	-13,73
928,7	-13,047
928,9	-12,5
929,1	-10,615
929,3	-11,003
929,5	-10,543
929,7	-11,837
929,9	-10,966
930,1	-11,546
930,3	-11,279
930,5	-10,03
930,8	-8,503
931	-8,322
931,2	-7,979
931,4	-8,412
931,6	-7,307
931,8	-7,847
932	-8,114
932,2	-8,642
932,4	-9,74
932,6	-10,943
932,8	-11,675
933	-13,579
933,3	-13,919
933,5	-12,957
933,7	-13,655
933,9	-13,489
934,1	-12,429
934,3	-12,319
934,5	-11,392
934,7	-11,535
934,9	-11,708
935,1	-10,132
935,3	-11,033
935,5	-13,194
935,7	-14,205
936	-14,854
936,2	-14,02
936,4	-13,945
936,6	-13,032
936,8	-13,632
937	-14,318
937,2	-15,276
937,4	-15,684
937,6	-16,936
937,8	-15,725
938	-18,852
938,2	-19,568
938,4	-18,512
938,7	-16,921
938,9	-16,77
939,1	-16,415
939,3	-14,556
939,5	-12,485
939,7	-12,116
939,9	-13,545
940,1	-12,976
940,3	-12,236
940,5	-12,225
940,7	-12,316
940,9	-11,388
941,1	-11,622
941,4	-11,818
941,6	-12,082
941,8	-12,504
942	-11,731
942,2	-11,739
942,4	-11,509
942,6	-9,559
942,8	-9,717
943	-9,736
943,2	-8,51
943,4	-9,023
943,6	-8,925
943,8	-8,793
944	-8,797
944,3	-9,159
944,5	-8,963
944,7	-6,685
944,9	-6,979
945,1	-6,278
945,3	-5,64
945,5	-4,2
945,7	-3,977
945,9	-5,652
946,1	-4,686
946,3	-4,95
946,5	-6,108
946,7	-7,088
946,9	-6,602
947,1	-7,477
947,4	-8,118
947,6	-8,729
947,8	-9,038
948	-9,755
948,2	-8,718
948,4	-8,831
948,6	-8,397
948,8	-7,96
949	-9,359
949,2	-9,212
949,4	-9,4
949,6	-10,818
949,8	-10,196
950	-11,373
950,2	-10,087
950,5	-8,484
950,7	-9,555
950,9	-8,292
951,1	-11,614
951,3	-10,46
951,5	-11,859
951,7	-13,492
951,9	-14,654
952,1	-16,317
952,3	-15,08
952,5	-15,435
952,7	-13,998
952,9	-12,874
953,1	-13,074
953,3	-14,684
953,5	-14,613
953,8	-14,469
954	-12,817
954,2	-13,326
954,4	-12,783
954,6	-14,156
954,8	-14,213
955	-13,556
955,2	-12,682
955,4	-13,579
955,6	-14,507
955,8	-13,572
956	-12,682
956,2	-12,576
956,4	-11,143
956,6	-12,599
956,8	-13,372
957	-12,829
957,2	-12,27
957,5	-11,275
957,7	-12,666
957,9	-12,214
958,1	-10,973
958,3	-10,977
958,5	-11,23
958,7	-11,999
958,9	-12,55
959,1	-12,64
959,3	-12,572
959,5	-12,459
959,7	-11,856
959,9	-12,055
960,1	-12,033
960,3	-12,01
960,5	-9,823
960,7	-8,94
960,9	-8,095
961,1	-8,835
961,4	-10,181
961,6	-12,512
961,8	-12,768
962	-12,764
962,2	-11,833
962,4	-14,126
962,6	-13,971
962,8	-14,99
963	-15,974
963,2	-16,279
963,4	-16,351
963,6	-17,72
963,8	-18,286
964	-20,217
964,2	-22,08
964,4	-20,945
964,6	-20,1
964,8	-19,444
965	-19,727
965,2	-20,436
965,5	-20,451
965,7	-19,976
965,9	-20,19
966,1	-20,945
966,3	-19,715
966,5	-17,264
966,7	-19,877
966,9	-19,757
967,1	-21,205
967,3	-20,96
967,5	-19,576
967,7	-19,606
967,9	-18,765
968,1	-16,721
968,3	-14,711
968,5	-15,589
968,7	-12,976
968,9	-12,218
969,1	-11,124
969,3	-8,831
969,5	-8,122
969,7	-7,081
969,9	-5,942
970,2	-5,116
970,4	-3,928
970,6	-2,766
970,8	-3,687
971	-3,079
971,2	-3,287
971,4	-3,34
971,6	-2,525
971,8	-2,661
972	-3,343
972,2	-0,749
972,4	-0,153
972,6	-1,756
972,8	-3,834
973	-2,416
973,2	-2,201
973,4	-2,472
973,6	-2,665
973,8	-3,408
974	-2,778
974,2	-2,121
974,4	-4,671
974,6	-5,497
974,8	-5,569
975	-5,983
975,2	-7,224
975,5	-8,386
975,7	-8,08
975,9	-7,741
976,1	-8,605
976,3	-9,378
976,5	-7,707
976,7	-8,144
976,9	-8,665
977,1	-9,087
977,3	-9,913
977,5	-10,177
977,7	-9,943
977,9	-8,884
978,1	-9,151
978,3	-9,348
978,5	-11,471
978,7	-11,241
978,9	-10,671
979,1	-10,475
979,3	-9,732
979,5	-9,891
979,7	-9,574
979,9	-9,389
980,1	-9,619
980,3	-10,023
980,5	-10,464
980,7	-9,106
980,9	-7,767
981,1	-8,488
981,3	-8,039
981,5	-8,375
981,7	-7,963
981,9	-9,035
982,2	-8,537
982,4	-8,559
982,6	-6,24
982,8	-9,129
983	-9,679
983,2	-9,023
983,4	-9,065
983,6	-9,182
983,8	-8,292
984	-8,235
984,2	-8,318
984,4	-8,039
984,6	-8,593
984,8	-8,009
985	-6,741
985,2	-5,734
985,4	-6,504
985,6	-7,862
985,8	-8,303
986	-6,183
986,2	-5,452
986,4	-6,225
986,6	-4,682
986,8	-5,056
987	-3,981
987,2	-5,105
987,4	-5,67
987,6	-6,459
987,8	-5,942
988	-5,486
988,2	-6,557
988,4	-7,688
988,6	-7,865
988,8	-10,784
989	-9,072
989,2	-8,94
989,4	-7,854
989,6	-7,349
989,8	-7,058
990	-5,927
990,2	-6,726
990,4	-7,601
990,6	-6,711
990,8	-5,768
991	-5,682
991,3	-7,782
991,5	-8,265
991,7	-8,865
991,9	-8,567
992,1	-9,276
992,3	-9,453
992,5	-10,03
992,7	-9,219
992,9	-10,143
993,1	-9,879
993,3	-11,018
993,5	-11,765
993,7	-10,95
993,9	-10,641
994,1	-11,192
994,3	-11,335
994,5	-10,453
994,7	-9,11
994,9	-8,608
995,1	-8,457
995,3	-8,39
995,5	-8,25
995,7	-9,589
995,9	-8,465
996,1	-8,804
996,3	-11,248
996,5	-10,984
996,7	-12,01
996,9	-12,395
997,1	-14,118
997,3	-14,858
997,5	-14,303
997,7	-14,36
997,9	-13,745
998,1	-11,324
998,3	-10,66
998,5	-12,236
998,7	-12,938
998,9	-11,942
999,1	-11,626
999,3	-11,426
999,5	-12,074
999,7	-13,523
999,9	-14,85
1000,1	-15,442
1000,3	-15,11
1000,5	-14,835
1000,7	-14,733
1000,9	-15,684
1001,1	-15,827
1001,3	-13,76
1001,5	-14,511
1001,7	-13,749
1001,9	-13,873
1002,1	-14,25
1002,3	-13,779
1002,5	-14,198
1002,7	-14,33
1002,9	-13,896
1003,1	-14,763
1003,3	-13,768
1003,5	-13,066
1003,7	-13,047
1003,9	-11,343
1004,1	-10,966
1004,3	-12,719
1004,5	-11,584
1004,7	-11,131
1004,9	-11,784
1005,1	-11,543
1005,3	-11,92
1005,5	-12,391
1005,7	-11,286
1005,9	-10,754
1006,1	-9,019
1006,3	-8,05
1006,5	-8,974
1006,7	-8,948
1006,9	-8,427
1007,1	-8,529
1007,3	-9,517
1007,5	-10,351
1007,7	-11,011
1007,9	-12,448
1008,1	-12,127
1008,3	-12,746
1008,5	-12,61
1008,7	-9,819
1008,9	-9,234
1009,1	-8,073
1009,3	-8,578
1009,5	-9,178
1009,7	-9,623
1009,9	-9,593
1010,1	-11,784
1010,3	-10,905
1010,5	-11,527
1010,7	-13,21
1010,9	-13,934
1011,1	-12,979
1011,3	-13,783
1011,5	-14,054
1011,7	-14,699
1011,9	-15,819
1012,1	-13,609
1012,3	-13,651
1012,5	-14,496
1012,7	-13,338
1012,9	-13,658
1013,1	-15,231
1013,3	-14,443
1013,5	-13,643
1013,7	-13,877
1013,9	-14,005
1014,1	-13,507
1014,3	-13,651
1014,5	-14,511
1014,7	-13,994
1014,9	-16,14
1015,1	-15,503
1015,3	-17,075
1015,5	-17,739
1015,7	-17,494
1015,9	-16,898
1016,1	-17,705
1016,3	-15,593
1016,5	-17,547
1016,7	-16,415
1016,9	-16,894
1017,1	-16,921
1017,3	-17,826
1017,5	-17,596
1017,7	-17
1017,9	-17,041
1018,1	-15,966
1018,3	-17,283
1018,5	-18,459
1018,7	-17,818
1018,9	-17,924
1019,1	-19,316
1019,2	-19,953
1019,4	-20,869
1019,6	-20,824
1019,8	-21,899
1020	-21,205
1020,2	-20,515
1020,4	-18,101
1020,6	-18,474
1020,8	-20,006
1021	-18,776
1021,2	-20,04
1021,4	-18,55
1021,6	-15,412
1021,8	-14,613
1022	-15,091
1022,2	-13,292
1022,4	-13,142
1022,6	-13,606
1022,8	-14,19
1023	-14,088
1023,2	-14,047
1023,4	-13,99
1023,6	-14,892
1023,8	-12,444
1024	-12,44
1024,2	-14,711
1024,4	-14,134
1024,6	-13,881
1024,8	-15,099
1025	-14,416
1025,2	-14,33
1025,4	-11,652
1025,6	-11,848
1025,8	-11,867
1026	-11,12
1026,2	-10,362
1026,4	-10,49
1026,6	-11,633
1026,8	-9,295
1027	-9,197
1027,2	-8,54
1027,4	-8,175
1027,6	-8,356
1027,8	-10,603
1028	-11,426
1028,1	-10,294
1028,3	-12,089
1028,5	-13,828
1028,7	-14,032
1028,9	-14,763
1029,1	-14,865
1029,3	-15,061
1029,5	-14,609
1029,7	-14,695
1029,9	-16,834
1030,1	-14,315
1030,3	-12,723
1030,5	-12,304
1030,7	-11,388
1030,9	-9,853
1031,1	-10,407
1031,3	-10,219
1031,5	-10,675
1031,7	-10,686
1031,9	-10,347
1032,1	-10,083
1032,3	-11,791
1032,5	-12,455
1032,7	-14,379
1032,9	-16,306
1033,1	-15,582
1033,3	-15,544
1033,5	-15,725
1033,7	-17,053
1033,9	-16,857
1034,1	-16,939
1034,3	-15,948
1034,4	-15,495
1034,6	-15,024
1034,8	-13,153
1035	-12,576
1035,2	-12,059
1035,4	-10,928
1035,6	-11,075
1035,8	-10,728
1036	-11,565
1036,2	-13,564
1036,4	-14,239
1036,6	-14,714
1036,8	-16,562
1037	-16,939
1037,2	-17,664
1037,4	-17,709
1037,6	-18,969
1037,8	-18,029
1038	-18,754
1038,2	-19,168
1038,4	-18,686
1038,6	-17,015
1038,8	-15,989
1039	-14,213
1039,2	-15,378
1039,4	-17,215
1039,5	-15,721
1039,7	-15,306
1039,9	-13,7
1040,1	-14,126
1040,3	-14,88
1040,5	-13,572
1040,7	-14,262
1040,9	-15,71
1041,1	-17,377
1041,3	-17,841
1041,5	-19,244
1041,7	-18,384
1041,9	-18,082
1042,1	-18,161
1042,3	-17,935
1042,5	-17,202
1042,7	-17,749
1042,9	-16,756
1043,1	-17,128
1043,3	-16,665
1043,5	-15,828
1043,7	-15,141
1043,8	-15,969
1044	-15,64
1044,2	-15,235
1044,4	-14,421
1044,6	-15,7
1044,8	-16,128
1045	-18,256
1045,2	-17,588
