Data from mesure_FLMT021711__17__39.txt Node

Date: Mon Nov 04 11:52:42 CET 2024
User: jordan.swietlicki
Spectrometer: FLMT02171
Trigger mode: 0
Integration Time (sec): 1,000000E-1
Scans to average: 15
Electric dark correction enabled: true
Nonlinearity correction enabled: false
Boxcar width: 15
XAxis mode: Wavelengths
Number of Pixels in Spectrum: 3648
>>>>>Begin Spectral Data<<<<<
194,7	-41,614
194,9	-40,15
195,2	-35,776
195,5	-35,45
195,7	-31,97
196	-31,044
196,2	-30,595
196,5	-32,426
196,8	-31,197
197	-29,888
197,3	-29,413
197,6	-26,934
197,8	-27,25
198,1	-25,818
198,4	-23,905
198,6	-22,87
198,9	-18,537
199,2	-14,162
199,4	-9,659
199,7	-4,017
200	-4,213
200,2	-6,668
200,5	-5,966
200,7	-6,683
201	-5,827
201,3	-5,567
201,5	-5,333
201,8	-5,623
202,1	-4,326
202,3	-4,239
202,6	-4,405
202,9	-5,661
203,1	-5,491
203,4	-7,256
203,7	-6,193
203,9	-7,347
204,2	-7,203
204,5	-5,978
204,7	-3,971
205	-2,84
205,2	-2,282
205,5	-2,029
205,8	-2,429
206	0,901
206,3	0,811
206,6	1,558
206,8	1,912
207,1	1,878
207,4	2,919
207,6	5,944
207,9	6,174
208,2	6,909
208,4	8,942
208,7	8,614
208,9	10,417
209,2	9,979
209,5	10,028
209,7	10,228
210	9,949
210,3	9,101
210,5	10,421
210,8	10,488
211,1	10,289
211,3	11,039
211,6	10,436
211,9	10,394
212,1	10,571
212,4	10,647
212,6	10,568
212,9	10,669
213,2	9,033
213,4	9,417
213,7	10,239
214	11,02
214,2	8,135
214,5	8,625
214,8	8,252
215	7,909
215,3	11,084
215,5	12,808
215,8	10,145
216,1	10,424
216,3	11,416
216,6	10,466
216,9	11,054
217,1	11,186
217,4	11,405
217,7	11,639
217,9	9,361
218,2	9,579
218,5	10,221
218,7	8,803
219	9,051
219,2	10,896
219,5	11,744
219,8	13,038
220	13,215
220,3	13,909
220,6	14,814
220,8	13,389
221,1	13,072
221,4	12,318
221,6	11,786
221,9	12,548
222,1	11,25
222,4	11,431
222,7	13,423
222,9	10,632
223,2	9,711
223,5	7,154
223,7	7,498
224	7,701
224,2	6,857
224,5	6,208
224,8	6,442
225	6,121
225,3	5,861
225,6	4,937
225,8	5,563
226,1	7,581
226,4	6,43
226,6	4,232
226,9	5,386
227,1	5,77
227,4	5,518
227,7	3,994
227,9	2,915
228,2	3,123
228,5	1,984
228,7	1,388
229	1,448
229,3	2,912
229,5	6,249
229,8	6,43
230	5,578
230,3	4,488
230,6	5,099
230,8	3,225
231,1	5,001
231,4	4,718
231,6	8,501
231,9	7,83
232,1	8,818
232,4	8,52
232,7	8,365
232,9	8,512
233,2	7,396
233,5	7,004
233,7	8,391
234	7,441
234,2	6,204
234,5	6,883
234,8	10,13
235	9,21
235,3	9,01
235,6	8,821
235,8	10,081
236,1	12,133
236,4	11,394
236,6	13,125
236,9	13,917
237,1	15,52
237,4	15,029
237,7	11,179
237,9	9,681
238,2	8,512
238,5	9,987
238,7	9,651
239	9,564
239,2	9,387
239,5	11,435
239,8	8,787
240	7,347
240,3	9,255
240,6	9,055
240,8	9,251
241,1	9,014
241,3	9,116
241,6	7,773
241,9	5,446
242,1	6,155
242,4	7,728
242,7	7,705
242,9	7,007
243,2	6,74
243,4	6,532
243,7	5,921
244	3,424
244,2	3,04
244,5	3,198
244,8	3,624
245	3,602
245,3	4,567
245,5	3,877
245,8	5,736
246,1	6,472
246,3	5,819
246,6	6,046
246,9	7,249
247,1	7,445
247,4	7,905
247,6	9,398
247,9	8,731
248,2	8,923
248,4	6,023
248,7	6,547
248,9	6,442
249,2	6,287
249,5	7,173
249,7	7,856
250	7,724
250,3	6,736
250,5	5,759
250,8	7,728
251	6,408
251,3	8,067
251,6	9,655
251,8	9,885
252,1	10,285
252,4	8,29
252,6	7,913
252,9	6,204
253,1	4,846
253,4	2,542
253,7	3,383
253,9	3,99
254,2	4,16
254,4	4,439
254,7	4,413
255	4,971
255,2	6,268
255,5	5,118
255,8	3,096
256	3,507
256,3	4,171
256,5	4,009
256,8	3,655
257,1	3,93
257,3	3,617
257,6	3,734
257,8	4,496
258,1	5,989
258,4	6,823
258,6	7,045
258,9	6,068
259,2	5,333
259,4	4,262
259,7	1,369
259,9	0,539
260,2	1,773
260,5	2,904
260,7	2,274
261	2,191
261,2	2,425
261,5	3,044
261,8	1,833
262	2,5
262,3	2,497
262,6	2,757
262,8	1,312
263,1	0,279
263,3	-1,399
263,6	-0,558
263,9	-0,871
264,1	-1,196
264,4	-0,279
264,6	0,569
264,9	0,109
265,2	0,505
265,4	0,166
265,7	1,045
266	0,128
266,2	1,135
266,5	0,807
266,7	-1,045
267	-2,621
267,3	-1,433
267,5	0,162
267,8	2,995
268	3,624
268,3	3,172
268,6	1,965
268,8	3,666
269,1	2,851
269,3	1,395
269,6	1,452
269,9	1,773
270,1	-0,528
270,4	-0,151
270,6	0,619
270,9	0,566
271,2	0,396
271,4	-2,429
271,7	-3,696
272	-4,409
272,2	-3,21
272,5	-4,673
272,7	-3,583
273	-2,248
273,3	-1,871
273,5	-0,871
273,8	-2,621
274	-1,644
274,3	-3,458
274,6	-3,489
274,8	0,124
275,1	1,384
275,3	1,671
275,6	0,045
275,9	-1,418
276,1	-1,082
276,4	-1,177
276,6	0,332
276,9	0,026
277,2	1,931
277,4	2,829
277,7	4,594
277,9	5,095
278,2	6,219
278,5	7,019
278,7	7,124
279	7,019
279,2	6,166
279,5	8,331
279,8	9,323
280	10,062
280,3	8,456
280,5	7,637
280,8	7,332
281,1	6,298
281,3	6,679
281,6	5,208
281,9	7,483
282,1	7,581
282,4	7,49
282,6	8,539
282,9	7,143
283,2	6,298
283,4	5,661
283,7	5,887
283,9	6,136
284,2	6,807
284,5	5,695
284,7	3,854
285	2,979
285,2	1,343
285,5	3,104
285,8	1,196
286	4,379
286,3	5,11
286,5	3,862
286,8	3,711
287,1	5,039
287,3	5,684
287,6	4,782
287,8	5,223
288,1	3,677
288,4	4,36
288,6	7,294
288,9	6,185
289,1	6,34
289,4	4,326
289,7	5,85
289,9	3,892
290,2	4,794
290,4	6,136
290,7	4,454
290,9	3,417
291,2	4,318
291,5	6,038
291,7	6,853
292	7,286
292,2	6,325
292,5	8,535
292,8	10,986
293	10,405
293,3	11,329
293,5	12,178
293,8	12,385
294,1	9,859
294,3	8,218
294,6	8,014
294,8	8,535
295,1	8,482
295,4	7,894
295,6	8,437
295,9	8,139
296,1	8,463
296,4	7,999
296,7	4,122
296,9	4,918
297,2	3,289
297,4	4,303
297,7	2,983
298	3,394
298,2	2,089
298,5	2,802
298,7	4,337
299	5,487
299,3	5,031
299,5	3,443
299,8	3,432
300	3,96
300,3	4,22
300,5	4,077
300,8	2,112
301,1	3,621
301,3	4,36
301,6	1,512
301,8	-1,226
302,1	-2,187
302,4	-0,939
302,6	-1,267
302,9	-1,007
303,1	-1,984
303,4	-0,192
303,7	1,101
303,9	-0,109
304,2	0,219
304,4	0,513
304,7	2,855
304,9	1,09
305,2	4,688
305,5	4,469
305,7	4,782
306	6,072
306,2	7,584
306,5	7,535
306,8	6,611
307	4,288
307,3	4,152
307,5	3,655
307,8	2,12
308,1	-0,038
308,3	0,675
308,6	-0,343
308,8	0,72
309,1	1,46
309,3	2,003
309,6	1,905
309,9	5,495
310,1	5,612
310,4	6,2
310,6	7,698
310,9	6,823
311,2	7,46
311,4	6,219
311,7	6,046
311,9	6,653
312,2	7,407
312,5	7,396
312,7	7,339
313	7,599
313,2	6,51
313,5	6,129
313,7	4,937
314	3,515
314,3	2,146
314,5	2,236
314,8	2,995
315	5,34
315,3	4,737
315,6	3,741
315,8	3,587
316,1	4,386
316,3	3,304
316,6	3,662
316,8	3,01
317,1	2,021
317,4	-0,619
317,6	-0,106
317,9	-1,045
318,1	-1,305
318,4	-2,12
318,6	-2,553
318,9	-3,044
319,2	-4,062
319,4	-4,563
319,7	-5,506
319,9	-5,333
320,2	-5,272
320,5	-4,435
320,7	-5,11
321	-5,027
321,2	-5,966
321,5	-5,329
321,7	-3,768
322	-2,286
322,3	-3,304
322,5	-3,609
322,8	-4,752
323	-5,623
323,3	-3,764
323,5	-1,746
323,8	-0,437
324,1	0,015
324,3	0,347
324,6	-0,456
324,8	0,351
325,1	-1,309
325,4	0,796
325,6	2,138
325,9	1,388
326,1	3,025
326,4	3,044
326,6	2,387
326,9	3,296
327,2	4,066
327,4	4,111
327,7	4,903
327,9	5,91
328,2	5,899
328,4	5,008
328,7	7,705
329	7,962
329,2	7,456
329,5	6,996
329,7	5,914
330	5,661
330,2	7,32
330,5	8,301
330,8	7,886
331	9,278
331,3	6,962
331,5	6,853
331,8	5,329
332	4,714
332,3	3,564
332,6	4,428
332,8	3,647
333,1	5,472
333,3	5,974
333,6	5,54
333,8	7,264
334,1	6,23
334,4	5,446
334,6	4,665
334,9	3,662
335,1	4,103
335,4	3,587
335,6	4,307
335,9	2,361
336,2	1,226
336,4	1,705
336,7	-0,909
336,9	0,207
337,2	0,468
337,4	1,241
337,7	1,765
338	-0,867
338,2	-0,675
338,5	-2,108
338,7	-1,026
339	-1,418
339,2	1,365
339,5	-0,275
339,8	0,543
340	1,196
340,3	1,196
340,5	1,18
340,8	3,832
341	3,741
341,3	1,799
341,6	1,471
341,8	0,355
342,1	-1,267
342,3	-0,886
342,6	1,252
342,8	2,142
343,1	1,433
343,4	1,708
343,6	0,317
343,9	2,384
344,1	3,323
344,4	2,814
344,6	2,825
344,9	2,621
345,1	1,874
345,4	1,222
345,7	1,633
345,9	3,643
346,2	2,689
346,4	1,165
346,7	0,683
346,9	0,724
347,2	-1,818
347,5	-0,649
347,7	-0,841
348	-2,206
348,2	-0,588
348,5	0,4
348,7	1,708
349	1,437
349,2	2,497
349,5	2,632
349,8	3,334
350	4,277
350,3	3,632
350,5	2,64
350,8	2,508
351	2,651
351,3	3,726
351,6	2,463
351,8	0,932
352,1	0,611
352,3	0,63
352,6	1,784
352,8	0,947
353,1	1,633
353,3	1,701
353,6	0,569
353,9	0,151
354,1	-0,223
354,4	1,652
354,6	2,493
354,9	1,131
355,1	2,885
355,4	3,225
355,6	4,684
355,9	5,125
356,2	5,016
356,4	5,08
356,7	1,026
356,9	1,516
357,2	1,727
357,4	1,546
357,7	0,272
358	2,542
358,2	3,688
358,5	4,348
358,7	3,394
359	4,013
359,2	4,79
359,5	5,616
359,7	7,286
360	7,833
360,3	9,636
360,5	8,595
360,8	8,987
361	10,59
361,3	9,504
361,5	10,824
361,8	11,077
362	11,771
362,3	10,798
362,6	10,892
362,8	12,608
363,1	12,476
363,3	12,566
363,6	13,426
363,8	15,184
364,1	13,883
364,3	13,441
364,6	14,362
364,8	15,52
365,1	14,441
365,4	16,662
365,6	18,627
365,9	17,62
366,1	18,137
366,4	17,002
366,6	18,627
366,9	19,728
367,1	19,759
367,4	22,761
367,7	23,183
367,9	22,783
368,2	21,524
368,4	20,087
368,7	20,49
368,9	21,294
369,2	19,917
369,4	20,275
369,7	21,69
370	21,595
370,2	22,485
370,5	22,025
370,7	21,976
371	23,277
371,2	22,855
371,5	22,67
371,7	22,527
372	22,632
372,2	23,025
372,5	23,926
372,8	22,467
373	21,791
373,3	19,31
373,5	20,275
373,8	19,234
374	17,782
374,3	19,325
374,5	19,261
374,8	19,382
375	18,378
375,3	16,915
375,6	14,992
375,8	16,142
376,1	16,885
376,3	19,268
376,6	19,061
376,8	16,708
377,1	20,652
377,3	19,178
377,6	17,662
377,8	18,91
378,1	20,219
378,4	20,871
378,6	19,713
378,9	17,13
379,1	17,911
379,4	16,051
379,6	14,448
379,9	13,607
380,1	12,985
380,4	12,612
380,6	13,536
380,9	14,12
381,2	14,641
381,4	13,709
381,7	15,161
381,9	16,164
382,2	15,727
382,4	15,429
382,7	13,483
382,9	14,049
383,2	14,758
383,4	15,425
383,7	16,708
383,9	15,127
384,2	14,992
384,5	16,628
384,7	18,016
385	17,005
385,2	18,522
385,5	19,057
385,7	18,386
386	18,152
386,2	17,813
386,5	16,455
386,7	17,681
387	16,564
387,2	18,488
387,5	20,253
387,8	22,414
388	23,289
388,3	24,405
388,5	25,167
388,8	27,177
389	28,403
389,3	26,826
389,5	25,933
389,8	27,128
390	25,521
390,3	25,344
390,5	25,978
390,8	27,879
391,1	26,755
391,3	27,72
391,6	27,117
391,8	28,256
392,1	27,501
392,3	27,55
392,6	27,837
392,8	28,395
393,1	32,14
393,3	34,249
393,6	34,233
393,8	34,467
394,1	36,87
394,4	40,645
394,6	41,675
394,9	43,824
395,1	44,382
395,4	43,598
395,6	45,092
395,9	44,594
396,1	44,137
396,4	44,318
396,6	43,998
396,9	42,995
397,1	43,364
397,4	44,828
397,6	44,277
397,9	46,717
398,2	48,226
398,4	50,232
398,7	49,817
398,9	49,979
399,2	50,447
399,4	50,624
399,7	50,383
399,9	50,945
400,2	50,285
400,4	50,884
400,7	51,62
400,9	49,383
401,2	49,21
401,4	50,025
401,7	49,38
401,9	47,939
402,2	45,529
402,5	45,472
402,7	43,466
403	43,447
403,2	45,642
403,5	45,48
403,7	45,608
404	46,468
404,2	45,808
404,5	47,554
404,7	49,546
405	52,144
405,2	51,756
405,5	52,491
405,7	52,996
406	53,113
406,2	53,574
406,5	54,773
406,7	55,41
407	55,836
407,3	55,972
407,5	56,455
407,8	57,19
408	56,051
408,3	56,542
408,5	57,221
408,8	56,44
409	57,635
409,3	57,745
409,5	59,065
409,8	59,593
410	61,754
410,3	62,433
410,5	66,317
410,8	65,405
411	64,873
411,3	65,322
411,5	66,332
411,8	65,929
412	65,725
412,3	66,17
412,6	66,528
412,8	65,488
413,1	65,574
413,3	66,404
413,6	66,804
413,8	66,653
414,1	65,442
414,3	64,481
414,6	65,216
414,8	63,236
415,1	62,946
415,3	63,809
415,6	65,378
415,8	66,947
416,1	66,698
416,3	65,246
416,6	67,581
416,8	66,068
417,1	68,316
417,3	66,898
417,6	68,146
417,8	68,788
418,1	69,466
418,4	68,591
418,6	69,764
418,9	70,002
419,1	70,077
419,4	70,496
419,6	71,028
419,9	71,703
420,1	70,636
420,4	71,066
420,6	71,36
420,9	70,764
421,1	70,104
421,4	70,221
421,6	69,621
421,9	69,813
422,1	68,527
422,4	68,237
422,6	70,383
422,9	69,323
423,1	69,036
423,4	68,908
423,6	69,663
423,9	71,379
424,1	73,17
424,4	71,16
424,6	70,549
424,9	69,048
425,1	68,459
425,4	66,178
425,6	66,857
425,9	64,809
426,2	64,677
426,4	63,934
426,7	63,839
426,9	61,822
427,2	59,789
427,4	59,125
427,7	58,823
427,9	56,41
428,2	55,127
428,4	56,176
428,7	56,851
428,9	57,677
429,2	58,51
429,4	60,121
429,7	59,446
429,9	58,363
430,2	58,329
430,4	57,858
430,7	59,861
430,9	59,887
431,2	58,823
431,4	58,654
431,7	57,552
431,9	55,565
432,2	56,5
432,4	56,877
432,7	57,33
432,9	60,155
433,2	62,105
433,4	60,645
433,7	62,282
433,9	62,38
434,2	61,81
434,4	60,637
434,7	62,353
434,9	64,171
435,2	63,575
435,4	63,847
435,7	65,868
435,9	65,642
436,2	66,072
436,4	66,095
436,7	65,058
436,9	63,112
437,2	61,516
437,4	62,832
437,7	65,718
437,9	66,555
438,2	65,397
438,4	65,371
438,7	65,389
438,9	65,363
439,2	63,7
439,4	61,599
439,7	63,5
439,9	63,685
440,2	63,394
440,5	63,775
440,7	62,376
441	62,003
441,2	62,448
441,5	62,048
441,7	61,942
442	63,081
442,2	64,028
442,5	63,741
442,7	64,741
443	66
443,2	66,789
443,5	65,525
443,7	65,744
444	63,7
444,2	64,503
444,5	65,401
444,7	67,045
445	67,483
445,2	66,958
445,5	65,405
445,7	65,374
446	66,344
446,2	66,193
446,5	67,143
446,7	68,158
447	68,742
447,2	70,217
447,5	70,798
447,7	69,3
448	69,527
448,2	70,157
448,5	70,651
448,7	71,68
449	70,654
449,2	71,243
449,5	70,5
449,7	69,798
450	69,383
450,2	70,1
450,5	68,392
450,7	70,002
451	68,931
451,2	70,915
451,5	71,314
451,7	72,536
452	74,143
452,2	73,954
452,5	72,171
452,7	74
452,9	74,69
453,2	74,728
453,4	76,051
453,7	77,036
453,9	76,711
454,2	76,232
454,4	75,497
454,7	77,311
454,9	76,813
455,2	75,357
455,4	76,217
455,7	77,526
455,9	76,165
456,2	76,96
456,4	76,689
456,7	78,578
456,9	78,107
457,2	78,439
457,4	80,226
457,7	82,082
457,9	82,938
458,2	83,176
458,4	82,946
458,7	84,918
458,9	84,051
459,2	84,209
459,4	86,645
459,7	87,362
459,9	87,302
460,2	88,625
460,4	87,309
460,7	89,07
460,9	90,568
461,2	89,636
461,4	89,844
461,7	91,228
461,9	91,759
462,2	92,061
462,4	91,699
462,7	94,256
462,9	94,803
463,2	94,92
463,4	93,905
463,7	94,897
463,9	95,014
464,2	95,112
464,4	95,606
464,7	96,908
464,9	96,202
465,2	96,451
465,4	96,632
465,7	97,232
465,9	100,019
466,2	100,06
466,4	99,336
466,6	100,581
466,9	99,434
467,1	97,511
467,4	96,666
467,6	98,473
467,9	98,175
468,1	98,292
468,4	97,141
468,6	96,594
468,9	96,5
469,1	95,753
469,4	95,753
469,6	96,444
469,9	96,074
470,1	97,349
470,4	94,23
470,6	95,667
470,9	97,405
471,1	98,627
471,4	97,892
471,6	97,405
471,9	98,842
472,1	99,525
472,4	98,888
472,6	100,871
472,9	100,223
473,1	100,89
473,4	101,535
473,6	100,649
473,9	100,287
474,1	100,83
474,3	99,947
474,6	102,561
474,8	101,878
475,1	101,494
475,3	100,483
475,6	101,999
475,8	103,689
476,1	105,299
476,3	105,446
476,6	106,996
476,8	108,007
477,1	110,232
477,3	110,862
477,6	113,253
477,8	112,793
478,1	115,708
478,3	116,021
478,6	118,073
478,8	117,104
479,1	117,53
479,3	117,413
479,6	118,42
479,8	117,232
480,1	119,016
480,3	119,925
480,5	121,003
480,8	119,476
481	120,106
481,3	120,136
481,5	120,675
481,8	120,106
482	122,923
482,3	123,07
482,5	123,549
482,8	124,1
483	125,608
483,3	125,699
483,5	127,094
483,8	126,027
484	125,672
484,3	124,066
484,5	125,491
484,8	125,684
485	125,314
485,2	124,801
485,5	126,906
485,7	126,468
486	126,434
486,2	125,077
486,5	128,033
486,7	129,037
487	132,212
487,2	131,292
487,5	133,408
487,7	135,278
488	133,619
488,2	133,306
488,5	135,188
488,7	134,377
489	134,369
489,2	135,052
489,5	136,764
489,7	136,787
489,9	135,72
490,2	136,342
490,4	136,432
490,7	137,058
490,9	137,115
491,2	135,795
491,4	138,099
491,7	141,29
491,9	142,768
492,2	143,315
492,4	142,44
492,7	143,157
492,9	144,692
493,2	144,375
493,4	145,046
493,6	145,031
493,9	146,34
494,1	144,579
494,4	145,352
494,6	144,137
494,9	142,889
495,1	141,871
495,4	140,453
495,6	143,24
495,9	145,744
496,1	146,08
496,4	147,573
496,6	149,459
496,9	152,827
497,1	153,344
497,3	153,344
497,6	154,105
497,8	157,04
498,1	157,085
498,3	157,055
498,6	156,504
498,8	156,881
499,1	157,217
499,3	157,643
499,6	159,842
499,8	160,826
500,1	160,204
500,3	161,169
500,6	160,909
500,8	160,969
501	163,428
501,3	163,466
501,5	162,648
501,8	165,073
502	167,705
502,3	167,358
502,5	168,026
502,8	169,617
503	172,487
503,3	171,616
503,5	170,447
503,8	172,469
504	172,257
504,2	174,422
504,5	173,461
504,7	175,674
505	176,372
505,2	179,849
505,5	181,003
505,7	183,142
506	184,07
506,2	188,395
506,5	190,334
506,7	190,587
506,9	191,926
507,2	193,792
507,4	193,053
507,7	197,605
507,9	199,74
508,2	203,436
508,4	204,865
508,7	206,321
508,9	208,841
509,2	212,752
509,4	215,576
509,7	217,213
509,9	221,946
510,1	225,329
510,4	227,309
510,6	227,351
510,9	232,092
511,1	235,478
511,4	238,722
511,6	242,708
511,9	243,715
512,1	245,967
512,4	249,248
512,6	252,631
512,8	253,683
513,1	255,146
513,3	258,522
513,6	261,132
513,8	263,372
514,1	265,771
514,3	267,92
514,6	271,043
514,8	272,337
515,1	277,149
515,3	278,982
515,5	283,425
515,8	286,416
516	291,009
516,3	294,094
516,5	297,726
516,8	300,423
517	302,678
517,3	306,393
517,5	309,572
517,7	314,351
518	319,05
518,2	323,968
518,5	327,626
518,7	332,061
519	335,558
519,2	338,778
519,5	343,323
519,7	347,668
520	352,02
520,2	357,1
520,4	364,145
520,7	371,62
520,9	377,311
521,2	383,229
521,4	387,755
521,7	395,32
521,9	401,958
522,2	405,778
522,4	413,812
522,6	418,73
522,9	424,372
523,1	428,509
523,4	433,68
523,6	437,281
523,9	443,5
524,1	448,713
524,4	453,604
524,6	458,53
524,8	461,603
525,1	466,321
525,3	472,205
525,6	478,699
525,8	485,458
526,1	490,489
526,3	496,78
526,6	500,872
526,8	505,035
527	512,114
527,3	517,044
527,5	521,302
527,8	525,405
528	528,241
528,3	532,989
528,5	537,255
528,8	540,638
529	545,281
529,2	550,764
529,5	553,883
529,7	560,77
530	564,523
530,2	569,58
530,5	571,866
530,7	575,358
531	579,322
531,2	584,824
531,4	587,623
531,7	592,752
531,9	596,391
532,2	601,762
532,4	606,767
532,7	611,323
532,9	613,612
533,2	614,657
533,4	616,139
533,6	618,96
533,9	619,492
534,1	622,158
534,4	625,779
534,6	629,584
534,9	631,817
535,1	633,638
535,3	636,418
535,6	639,495
535,8	638,417
536,1	640,744
536,3	643,866
536,6	646,435
536,8	646,865
537,1	649,305
537,3	648,701
537,5	649,147
537,8	649,309
538	651,771
538,3	652,462
538,5	652,198
538,8	652,888
539	653,404
539,2	654,317
539,5	655,652
539,7	655,879
540	657,659
540,2	658,741
540,5	659,401
540,7	661,423
540,9	662,569
541,2	664,006
541,4	668,984
541,7	673,125
541,9	675,452
542,2	672,726
542,4	673,612
542,7	674,936
542,9	676,716
543,1	677,749
543,4	681,411
543,6	682,441
543,9	683,169
544,1	683,108
544,4	684,255
544,6	684,821
544,8	686,597
545,1	687,393
545,3	689,105
545,6	690,489
545,8	693,186
546,1	694,204
546,3	695,234
546,5	697,052
546,8	699,903
547	700,876
547,3	701,819
547,5	701,046
547,8	700,717
548	701,698
548,2	702,494
548,5	701,336
548,7	701,962
549	699,167
549,2	698,96
549,5	697,583
549,7	698,59
549,9	698,511
550,2	697,828
550,4	697,244
550,7	698,375
550,9	696,173
551,2	697,448
551,4	698,066
551,6	699,145
551,9	699,058
552,1	699,382
552,4	699,771
552,6	698,006
552,9	698,809
553,1	697,546
553,3	696,248
553,6	695,924
553,8	695,17
554,1	696,097
554,3	692,582
554,5	690,244
554,8	688,392
555	686,906
555,3	684,493
555,5	682,743
555,8	680,593
556	680,649
556,2	677,123
556,5	676,456
556,7	672,978
557	673,408
557,2	671,775
557,5	672,439
557,7	673,597
557,9	671,534
558,2	668,686
558,4	669,712
558,7	665,971
558,9	665,122
559,2	664,002
559,4	662,516
559,6	663,308
559,9	662,909
560,1	663,071
560,4	662,731
560,6	663,146
560,8	663,346
561,1	663,323
561,3	664,527
561,6	662,773
561,8	662,716
562,1	662,629
562,3	663,795
562,5	664,964
562,8	667,529
563	668,053
563,3	669,961
563,5	670,772
563,7	672,488
564	672,877
564,2	674,325
564,5	673,876
564,7	676,772
565	677,085
565,2	675,113
565,4	676,392
565,7	680,027
565,9	679,039
566,2	680,435
566,4	680,012
566,6	681,902
566,9	683,478
567,1	684,025
567,4	683,527
567,6	684,802
567,9	684,059
568,1	685,149
568,3	685,473
568,6	686,725
568,8	687,053
569,1	686,963
569,3	686,823
569,5	688,811
569,8	690,048
570	690,798
570,3	691,79
570,5	693,503
570,7	693,846
571	694,687
571,2	695,837
571,5	695,366
571,7	694,453
572	695,324
572,2	692,986
572,4	694,136
572,7	696,358
572,9	697,104
573,2	695,286
573,4	694,732
573,6	694,378
573,9	694,789
574,1	693,016
574,4	689,803
574,6	689,716
574,8	688,373
575,1	687,084
575,3	687,265
575,6	686,307
575,8	685,371
576	683,923
576,3	681,804
576,5	683,942
576,8	685,692
577	685,681
577,3	685,251
577,5	684,508
577,7	684,263
578	683,508
578,2	683,237
578,5	682,192
578,7	681,521
578,9	682,728
579,2	683,063
579,4	682,32
579,7	682,75
579,9	680,842
580,1	680,963
580,4	681,121
580,6	681,464
580,9	684,308
581,1	684,994
581,3	685,085
581,6	683,056
581,8	685,398
582,1	685,368
582,3	686,442
582,5	687,366
582,8	688,675
583	690,259
583,3	692,741
583,5	691,606
583,7	693,521
584	690,866
584,2	690,059
584,5	689,26
584,7	688,17
584,9	687,28
585,2	684,327
585,4	682,43
585,7	677,481
585,9	672,997
586,1	669,226
586,4	664,572
586,6	662,577
586,9	659,627
587,1	656,742
587,3	653,982
587,6	649,708
587,8	646,08
588,1	643,55
588,3	638,998
588,5	636,188
588,8	632,522
589	632,077
589,3	629,097
589,5	625,202
589,7	624,658
590	622,369
590,2	620,34
590,5	616,64
590,7	612,59
590,9	613,533
591,2	610,191
591,4	609,275
591,7	609,026
591,9	609,456
592,1	609,184
592,4	608,856
592,6	608,724
592,9	608,909
593,1	612,382
593,3	615,215
593,6	617,591
593,8	620,544
594,1	622,622
594,3	624,851
594,5	626,838
594,8	628,569
595	632,22
595,3	634,917
595,5	637,9
595,7	642,12
596	644,84
596,2	648,083
596,4	653,073
596,7	655,86
596,9	658,56
597,2	659,141
597,4	662,531
597,6	663,471
597,9	665,096
598,1	668,758
598,4	671,421
598,6	674,483
598,8	676,26
599,1	676,365
599,3	678,349
599,6	679,756
599,8	682,969
600	686,507
600,3	689,226
600,5	689,859
600,7	692,371
601	695,943
601,2	697,663
601,5	698,119
601,7	699,786
601,9	702,366
602,2	704,493
602,4	704,723
602,7	704,587
602,9	704,402
603,1	703,976
603,4	704,632
603,6	705,081
603,9	702,897
604,1	702,943
604,3	703,999
604,6	703,923
604,8	702,618
605	702,505
605,3	701,328
605,5	699,669
605,8	696,531
606	696,697
606,2	695,641
606,5	694,525
606,7	690,003
607	687,035
607,2	682,629
607,4	677,994
607,7	675,034
607,9	672,514
608,1	670,859
608,4	666,439
608,6	663,731
608,9	661,34
609,1	658,209
609,3	653,834
609,6	650,135
609,8	647,777
610,1	644,828
610,3	638,59
610,5	634,344
610,8	631,04
611	628,407
611,2	625,217
611,5	622,388
611,7	617,757
612	615,158
612,2	610,9
612,4	607,453
612,7	604,519
612,9	601,803
613,1	597,828
613,4	593,65
613,6	589,377
613,9	587,249
614,1	584,99
614,3	583,399
614,6	582,637
614,8	581,962
615	578,526
615,3	576,633
615,5	574,079
615,8	570,749
616	569,248
616,2	567,536
616,5	566,314
616,7	565,333
616,9	563,998
617,2	562,607
617,4	562,626
617,7	563,629
617,9	561,981
618,1	559,08
618,4	556,237
618,6	553,499
618,8	552,016
619,1	552,379
619,3	550,331
619,6	548,539
619,8	545,831
620	545,009
620,3	543,323
620,5	543,761
620,7	541,377
621	540,925
621,2	537,478
621,5	535,467
621,7	533,978
621,9	531,549
622,2	528,856
622,4	529,418
622,6	527,83
622,9	525,341
623,1	525,409
623,4	521,999
623,6	519,85
623,8	518,42
624,1	515,237
624,3	513,178
624,5	511,356
624,8	508,347
625	506,001
625,3	504,556
625,5	503,666
625,7	503,138
626	501,577
626,2	498,873
626,4	495,486
626,7	493,152
626,9	492,974
627,1	492,258
627,4	490,187
627,6	487,419
627,9	485,1
628,1	483,983
628,3	482,199
628,6	481,517
628,8	482,188
629	481,121
629,3	480,019
629,5	480,042
629,8	476,595
630	475,252
630,2	473,148
630,5	472,152
630,7	471,322
630,9	470,131
631,2	467,396
631,4	467,385
631,6	466,171
631,9	464,047
632,1	463,406
632,4	463,323
632,6	462,682
632,8	462,052
633,1	461,588
633,3	462,075
633,5	461,287
633,8	459,982
634	462,531
634,2	461,686
634,5	461,366
634,7	461,992
635	461,965
635,2	461,747
635,4	463,255
635,7	464,613
635,9	464,017
636,1	463,399
636,4	462,15
636,6	460,012
636,8	458,85
637,1	459,703
637,3	459,126
637,5	458,779
637,8	457,002
638	457,179
638,3	455,139
638,5	455,867
638,7	453,793
639	455,034
639,2	455,226
639,4	452,786
639,7	451,462
639,9	449,561
640,1	451,39
640,4	451,032
640,6	448,618
640,9	448,237
641,1	448,818
641,3	445,364
641,6	444,975
641,8	443,719
642	441,026
642,3	439,016
642,5	437,5
642,7	433,261
643	432,39
643,2	429,968
643,4	426,269
643,7	424,911
643,9	424,213
644,1	421,437
644,4	420,495
644,6	418,183
644,9	417,383
645,1	415,863
645,3	412,582
645,6	412,16
645,8	408,449
646	408,977
646,3	404,304
646,5	401,43
646,7	401,973
647	400,234
647,2	398,432
647,4	394,494
647,7	390,855
647,9	390,847
648,1	390,349
648,4	387,898
648,6	385,993
648,9	384,677
649,1	384,983
649,3	385,763
649,6	384,752
649,8	383,666
650	383,455
650,3	379,506
650,5	380,204
650,7	379,638
651	377,945
651,2	378,903
651,4	378,032
651,7	374,434
651,9	373,815
652,1	372,699
652,4	372,065
652,6	372,51
652,8	371,65
653,1	370,157
653,3	367,773
653,5	366,148
653,8	364,085
654	362,98
654,3	360,736
654,5	360,2
654,7	357,066
655	355,433
655,2	353,596
655,4	350,591
655,7	350,738
655,9	352,427
656,1	353,325
656,4	350,387
656,6	348,324
656,8	353,472
657,1	354,226
657,3	353,627
657,5	351,681
657,8	351,907
658	352,012
658,2	352,82
658,5	350,557
658,7	351,156
658,9	352,043
659,2	351,277
659,4	349,821
659,6	349,991
659,9	351,062
660,1	350,338
660,3	351,601
660,6	351,073
660,8	352,627
661	353,197
661,3	351,609
661,5	351,865
661,8	351,892
662	351,707
662,2	352,789
662,5	351,952
662,7	353,457
662,9	351,315
663,2	350,006
663,4	345,028
663,6	343,24
663,9	343,591
664,1	338,307
664,3	337,044
664,6	337,145
664,8	336,859
665	335,377
665,3	335,15
665,5	334,238
665,7	334,977
666	333,876
666,2	331,997
666,4	332,288
666,7	331,058
666,9	329,437
667,1	327,257
667,4	327,653
667,6	326,163
667,8	325,507
668,1	325,073
668,3	324,051
668,5	324,56
668,8	323,572
669	321,633
669,2	323,689
669,5	323,233
669,7	323,029
669,9	320,755
670,2	320,868
670,4	319,544
670,6	320,057
670,9	321,599
671,1	318,975
671,3	317,594
671,6	314,709
671,8	313,894
672	313,955
672,3	313,793
672,5	314,166
672,7	311,665
673	310,76
673,2	309,817
673,4	312,661
673,7	310,907
673,9	310,64
674,1	309,919
674,4	309,15
674,6	307,034
674,8	306,318
675,1	305,133
675,3	303,327
675,5	304,092
675,8	303,146
676	302,833
676,2	304,488
676,5	301,667
676,7	301,313
676,9	299,676
677,2	299,133
677,4	297,722
677,6	296,052
677,9	295,475
678,1	293,578
678,3	294,509
678,5	292,831
678,8	291,605
679	290,417
679,2	290,119
679,5	289,731
679,7	286,962
679,9	287,539
680,2	285,013
680,4	285,865
680,6	281,773
680,9	281,792
681,1	281,369
681,3	281,422
681,6	279,97
681,8	279,778
682	278,68
682,3	279,676
682,5	279,231
682,7	276,308
683	273,71
683,2	271,134
683,4	267,076
683,7	263,628
683,9	261,848
684,1	260,151
684,4	258,462
684,6	255,535
684,8	251,971
685,1	249,172
685,3	246,815
685,5	243,76
685,7	241,603
686	240,038
686,2	237,194
686,4	235,003
686,7	231,164
686,9	229,666
687,1	226,91
687,4	225,556
687,6	221,886
687,8	220,951
688,1	218,594
688,3	217,081
688,5	214,03
688,8	214,924
689	212,997
689,2	213,985
689,5	210,266
689,7	208,041
689,9	206,25
690,2	205,005
690,4	205,31
690,6	204,914
690,8	206,001
691,1	204,303
691,3	203,987
691,5	203,138
691,8	202,742
692	205,567
692,2	207,543
692,5	207,268
692,7	207,645
692,9	207,92
693,2	207,249
693,4	207,166
693,6	207,102
693,9	207,932
694,1	208,882
694,3	209,467
694,5	209,44
694,8	209,67
695	209,908
695,2	209,131
695,5	208,697
695,7	209,519
695,9	208,494
696,2	206,182
696,4	203,779
696,6	204,168
696,9	203,598
697,1	206,197
697,3	207,626
697,6	207,4
697,8	207,411
698	207,174
698,2	206,974
698,5	206,951
698,7	207,419
698,9	208,678
699,2	207,464
699,4	204,583
699,6	205,989
699,9	203,941
700,1	204,055
700,3	205,763
700,6	205,952
700,8	206,415
701	205,85
701,2	204,319
701,5	204,224
701,7	204,341
701,9	202,614
702,2	202,674
702,4	204,515
702,6	204,677
702,9	203,244
703,1	200,988
703,3	203,655
703,6	204,096
703,8	203,783
704	204,179
704,2	200,619
704,5	199,864
704,7	200,336
704,9	200,611
705,2	200,506
705,4	200,755
705,6	200,713
705,9	200,573
706,1	200,11
706,3	198,45
706,5	197,5
706,8	195,165
707	195,437
707,2	195,305
707,5	194,705
707,7	193,215
707,9	192,28
708,2	191,45
708,4	191,322
708,6	190,594
708,8	189,776
709,1	190,545
709,3	188,527
709,5	186,193
709,8	185,997
710	187,094
710,2	187,057
710,5	186,246
710,7	184,398
710,9	183,451
711,1	182,927
711,4	183,836
711,6	182,859
711,8	182,256
712,1	180,928
712,3	180,328
712,5	179,619
712,8	179,434
713	176,685
713,2	174,351
713,4	173,66
713,7	173,423
713,9	173,034
714,1	172,974
714,4	170,832
714,6	167,407
714,8	165,137
715,1	162,527
715,3	160,909
715,5	157,149
715,7	153,781
716	150,044
716,2	146,378
716,4	144,579
716,7	141,78
716,9	139,755
717,1	135,052
717,3	133,785
717,6	130,768
717,8	129,338
718	127,641
718,3	125,397
718,5	124,017
718,7	122,938
718,9	121,12
719,2	118,605
719,4	117,047
719,6	114,154
719,9	111,341
720,1	111,861
720,3	110,975
720,6	107,818
720,8	106,427
721	104,692
721,2	102,614
721,5	101,656
721,7	100,852
721,9	100,215
722,2	98,903
722,4	98,118
722,6	99,993
722,8	100,377
723,1	102,964
723,3	104,462
723,5	103,824
723,8	104,473
724	102,304
724,2	102,716
724,4	102,848
724,7	104,745
724,9	104,394
725,1	105,197
725,4	106,517
725,6	103,187
725,8	102,022
726	101,188
726,3	99,913
726,5	99,389
726,7	98,797
727	97,266
727,2	94,98
727,4	94,992
727,6	96,628
727,9	97,209
728,1	96,968
728,3	97,073
728,6	98,05
728,8	100,094
729	100,177
729,2	102,297
729,5	102,248
729,7	101,094
729,9	102,323
730,2	100,988
730,4	101,422
730,6	102,651
730,8	101,731
731,1	103,508
731,3	104,779
731,5	103,896
731,7	101,603
732	102,244
732,2	101,886
732,4	101,147
732,7	103,817
732,9	103,161
733,1	102,538
733,3	103,768
733,6	105,039
733,8	106,728
734	110,779
734,3	112,11
734,5	115,365
734,7	116,821
734,9	116,225
735,2	119,691
735,4	119,928
735,6	119,152
735,9	119,74
736,1	121,06
736,3	122,037
736,5	121,871
736,8	122,335
737	120,928
737,2	120,72
737,4	120,034
737,7	120,238
737,9	123,877
738,1	122,772
738,4	122,576
738,6	123,319
738,8	124,454
739	123,368
739,3	123,195
739,5	122,678
739,7	122,625
739,9	126,151
740,2	127,343
740,4	127,588
740,6	126,985
740,9	126,159
741,1	124,375
741,3	123,391
741,5	120,328
741,8	119,608
742	121,471
742,2	120,886
742,4	120,355
742,7	121,829
742,9	121,92
743,1	120,49
743,4	118,394
743,6	118,627
743,8	117,918
744	119,065
744,3	120,117
744,5	119,461
744,7	119,114
744,9	118,016
745,2	121,158
745,4	120,257
745,6	119,883
745,8	119,17
746,1	121,101
746,3	123,232
746,5	125,627
746,8	124,677
747	123,489
747,2	124,111
747,4	125,582
747,7	125,133
747,9	126,193
748,1	125,099
748,3	126,204
748,6	126,642
748,8	124,654
749	122,934
749,2	120,57
749,5	121,362
749,7	120,464
749,9	118,948
750,2	121,494
750,4	121,641
750,6	121,776
750,8	121,279
751,1	120,973
751,3	119,238
751,5	120,717
751,7	121,388
752	120,687
752,2	118,612
752,4	118,197
752,6	117,692
752,9	117,624
753,1	115,701
753,3	115,014
753,5	112,748
753,8	113,777
754	111,805
754,2	111,205
754,4	109,851
754,7	108,75
754,9	107,517
755,1	108,026
755,4	107,471
755,6	108,407
755,8	108,931
756	107,143
756,3	105,024
756,5	102,768
756,7	99,317
756,9	97,198
757,2	93,562
757,4	90,598
757,6	86,163
757,8	83,508
758,1	81,69
758,3	81,373
758,5	76,806
758,7	72,254
759	67,566
759,2	66,676
759,4	64,45
759,6	62,485
759,9	59,121
760,1	57,771
760,3	53,242
760,5	50,922
760,8	47,415
761	45,767
761,2	43,179
761,4	41,886
761,7	39,936
761,9	39,28
762,1	36,097
762,3	34,2
762,6	30,194
762,8	29,085
763	28,301
763,2	30,964
763,5	30,771
763,7	30,941
763,9	32,152
764,1	32,118
764,4	32,582
764,6	34,686
764,8	37,567
765	36,451
765,3	35,493
765,5	37,428
765,7	38,499
765,9	41,313
766,2	41,369
766,4	43,658
766,6	43,123
766,8	44,91
767,1	45,412
767,3	47,2
767,5	48,821
767,7	50,722
768	51,699
768,2	52,687
768,4	52,804
768,6	53,185
768,9	52,103
769,1	54,298
769,3	55,882
769,5	56,843
769,8	58,703
770	60,472
770,2	58,427
770,4	59,729
770,7	60,769
770,9	60,377
771,1	60,513
771,3	62,372
771,6	62,501
771,8	61,924
772	62,429
772,2	61,546
772,5	61,516
772,7	62,636
772,9	61,607
773,1	60,03
773,4	60,079
773,6	61,761
773,8	60,649
774	60,524
774,3	59,744
774,5	58,333
774,7	57,96
774,9	57,066
775,2	57,047
775,4	57,567
775,6	57,413
775,8	59,087
776	58,857
776,3	57,858
776,5	57,647
776,7	56,029
776,9	56,078
777,2	56,379
777,4	55,139
777,6	54,765
777,8	55,938
778,1	56,64
778,3	55,282
778,5	54,667
778,7	54,399
779	53,57
779,2	54,939
779,4	55,44
779,6	54,89
779,9	53,592
780,1	53,649
780,3	52,446
780,5	50,432
780,7	50,104
781	50,537
781,2	50,832
781,4	50,583
781,6	50,447
781,9	51,443
782,1	49,361
782,3	48,765
782,5	48,244
782,8	47,049
783	48,441
783,2	47,2
783,4	47,501
783,7	46,894
783,9	44,722
784,1	43,259
784,3	42,21
784,5	41,275
784,8	38,337
785	36,61
785,2	35,799
785,4	35,112
785,7	33,755
785,9	34,848
786,1	34,629
786,3	33,887
786,6	33,981
786,8	34,961
787	35,474
787,2	36,168
787,4	36,515
787,7	37,303
787,9	37,156
788,1	36,836
788,3	36,538
788,6	35,157
788,8	32,046
789	30,839
789,2	29,659
789,5	29,259
789,7	27,377
789,9	24,82
790,1	23,836
790,3	22,768
790,6	23,07
790,8	23,217
791	23,655
791,2	25,19
791,5	26,883
791,7	26,755
791,9	27,422
792,1	27,305
792,3	27,185
792,6	26,675
792,8	25,525
793	26,645
793,2	27,136
793,5	26,129
793,7	25,94
793,9	24,797
794,1	23,458
794,3	23,047
794,6	23,662
794,8	22,497
795	22,629
795,2	22,35
795,5	23,715
795,7	25,08
795,9	27,415
796,1	26,438
796,3	26,242
796,6	28,173
796,8	29,274
797	31,062
797,2	32,683
797,5	33,513
797,7	34,501
797,9	33,532
798,1	33,951
798,3	41,418
798,6	42,033
798,8	43,387
799	44,616
799,2	44,266
799,5	45,714
799,7	46,098
799,9	43,323
800,1	41,637
800,3	41,859
800,6	41,448
800,8	41,822
801	42,489
801,2	42,587
801,5	41,92
801,7	39,962
801,9	38,801
802,1	39,857
802,3	38,921
802,6	38,122
802,8	36,376
803	38,28
803,2	39,412
803,4	38,212
803,7	38,303
803,9	37,42
804,1	36,545
804,3	35,463
804,6	35,131
804,8	35,693
805	32,823
805,2	23,73
805,4	23,176
805,7	21,343
805,9	20,211
806,1	21,512
806,3	21,203
806,5	20,901
806,8	20,328
807	21,411
807,2	21,678
807,4	22,04
807,6	19,11
807,9	18,035
808,1	17,756
808,3	17,85
808,5	21,648
808,8	23,127
809	21,316
809,2	23,085
809,4	23,13
809,6	22,81
809,9	20,245
810,1	17,994
810,3	18,914
810,5	18,571
810,7	16,53
811	15,112
811,2	14,614
811,4	14,328
811,6	13,751
811,8	15,044
812,1	15,237
812,3	15,267
812,5	15,033
812,7	13,969
812,9	13,276
813,2	14,022
813,4	12,514
813,6	13,449
813,8	11,929
814	10,549
814,3	10,602
814,5	13,638
814,7	12,955
814,9	11,201
815,2	10,224
815,4	8,516
815,6	8,109
815,8	7,694
816	6,227
816,3	6,457
816,5	5,714
816,7	7,407
816,9	9,161
817,1	8,388
817,4	6,574
817,6	7,92
817,8	7,845
818	7,641
818,2	6,894
818,5	6,034
818,7	4,062
818,9	2,063
819,1	3,202
819,3	3,556
819,6	4,895
819,8	7,109
820	5,035
820,2	4,937
820,4	4,571
820,7	4,235
820,9	5,744
821,1	5,914
821,3	4,047
821,5	4,861
821,8	6,498
822	5,503
822,2	6,445
822,4	6,038
822,6	5,921
822,9	5,902
823,1	4,812
823,3	5,137
823,5	3,594
823,7	4,53
823,9	3,911
824,2	3,907
824,4	2,591
824,6	3,296
824,8	2,21
825	3,059
825,3	3,285
825,5	5,31
825,7	6,51
825,9	5,408
826,1	4,126
826,4	3,734
826,6	0,592
826,8	-0,196
827	0,091
827,2	0,988
827,5	2,44
827,7	2,368
827,9	1,957
828,1	4,096
828,3	3,96
828,6	4,1
828,8	5,759
829	3,692
829,2	3,326
829,4	5,563
829,6	5,476
829,9	5,552
830,1	5,993
830,3	6,072
830,5	4,801
830,7	4,914
831	4,646
831,2	5,974
831,4	4,326
831,6	4,201
831,8	3,085
832,1	3,76
832,3	3,232
832,5	4,284
832,7	3,157
832,9	3,873
833,1	3,824
833,4	4,895
833,6	7,154
833,8	9,915
834	9,629
834,2	9,836
834,5	8,957
834,7	6,66
834,9	4,82
835,1	4,345
835,3	3,579
835,5	2,27
835,8	2,934
836	3,104
836,2	1,471
836,4	1,735
836,6	1,493
836,9	1,154
837,1	1,558
837,3	2,353
837,5	1,433
837,7	1,252
837,9	0,355
838,2	2,84
838,4	2,761
838,6	5,05
838,8	5,352
839	5,186
839,3	4,888
839,5	6,543
839,7	6,555
839,9	5,42
840,1	4,756
840,3	5,612
840,6	2,286
840,8	2,783
841	1,388
841,2	2,18
841,4	3,33
841,7	3,764
841,9	4,084
842,1	3,756
842,3	4,948
842,5	4,643
842,7	5,476
843	5,027
843,2	3,387
843,4	5,714
843,6	6,532
843,8	6,898
844	6,347
844,3	6,736
844,5	6,551
844,7	6,702
844,9	6,185
845,1	6,057
845,4	4,069
845,6	4,273
845,8	5,544
846	4,518
846,2	3,866
846,4	5,476
846,7	6,106
846,9	6,883
847,1	5,355
847,3	7,407
847,5	6,517
847,7	6,883
848	5,45
848,2	5,887
848,4	5,97
848,6	5,133
848,8	4,865
849	3,613
849,3	3,93
849,5	4,194
849,7	3,326
849,9	2,787
850,1	-0,068
850,3	0,984
850,6	0,807
850,8	-0,321
851	-1,297
851,2	-1,561
851,4	-1,497
851,6	-3,153
851,9	-2,172
852,1	-0,788
852,3	-3,179
852,5	-3,572
852,7	-2,048
852,9	-0,886
853,2	-1,825
853,4	-1,893
853,6	-3,949
853,8	-5,306
854	-7,539
854,2	-6,57
854,5	-6,306
854,7	-6,151
854,9	-6,019
855,1	-6,061
855,3	-5,586
855,5	-3,964
855,8	-4,273
856	-6,411
856,2	-8,697
856,4	-6,253
856,6	-4,767
856,8	-4,496
857,1	-3,549
857,3	-4,801
857,5	-3,96
857,7	-1,207
857,9	-0,562
858,1	0,72
858,4	0,03
858,6	-0,343
858,8	-2,357
859	-1,716
859,2	-3,496
859,4	-4,533
859,7	-6,072
859,9	-6,732
860,1	-7,377
860,3	-6,317
860,5	-5,823
860,7	-5,812
860,9	-7,064
861,2	-6,657
861,4	-6,479
861,6	-5,499
861,8	-4,778
862	-4,975
862,2	-5,091
862,5	-4,718
862,7	-2,429
862,9	-2,131
863,1	-2,467
863,3	-3,032
863,5	-1,493
863,8	-4,62
864	-2,715
864,2	-1,935
864,4	-3,722
864,6	-4,232
864,8	-4,707
865	-2,991
865,3	-2,138
865,5	-2,229
865,7	-0,234
865,9	0,366
866,1	-0,464
866,3	-0,404
866,6	0,566
866,8	0,547
867	0,053
867,2	0,211
867,4	0,999
867,6	1,618
867,8	0,796
868,1	0,807
868,3	0,072
868,5	-1,03
868,7	-1,358
868,9	-2,636
869,1	-1,803
869,3	-2,187
869,6	-2,976
869,8	-3,13
870	-3,496
870,2	-4,771
870,4	-5,359
870,6	-6,042
870,9	-7,105
871,1	-8,165
871,3	-8,097
871,5	-8,938
871,7	-6,83
871,9	-8,863
872,1	-9,391
872,4	-11,65
872,6	-12,91
872,8	-11,65
873	-11,669
873,2	-12,423
873,4	-10,198
873,6	-9,896
873,9	-10,654
874,1	-10,53
874,3	-11,767
874,5	-11,593
874,7	-12,676
874,9	-13,954
875,1	-14,494
875,4	-14,826
875,6	-15,399
875,8	-15,599
876	-13,845
876,2	-12,536
876,4	-14,332
876,6	-13,385
876,9	-11,36
877,1	-10,394
877,3	-11,243
877,5	-13,249
877,7	-11,771
877,9	-10,549
878,1	-11,703
878,4	-14,218
878,6	-13,46
878,8	-11,835
879	-11,94
879,2	-9,681
879,4	-10,466
879,6	-9,391
879,9	-10,315
880,1	-11,269
880,3	-11,567
880,5	-10,292
880,7	-9,18
880,9	-8,98
881,1	-8,825
881,3	-8,056
881,6	-7,762
881,8	-8,833
882	-7,596
882,2	-5,631
882,4	-5,457
882,6	-7,143
882,8	-7,339
883,1	-6,89
883,3	-7,905
883,5	-9,825
883,7	-8,229
883,9	-8,041
884,1	-6,642
884,3	-8,584
884,6	-10,228
884,8	-7,396
885	-7,381
885,2	-7,581
885,4	-8,644
885,6	-7,513
885,8	-7,245
886	-6,826
886,3	-8,15
886,5	-7,98
886,7	-8,373
886,9	-6,898
887,1	-7,554
887,3	-9,745
887,5	-9,01
887,8	-8,523
888	-10,032
888,2	-8,527
888,4	-6,807
888,6	-6,962
888,8	-8,086
889	-8,342
889,2	-9,134
889,5	-11,05
889,7	-10,141
889,9	-7,573
890,1	-7,962
890,3	-10,202
890,5	-9,478
890,7	-8,772
890,9	-8,527
891,2	-7,977
891,4	-9,723
891,6	-9,481
891,8	-8,535
892	-8,682
892,2	-9,074
892,4	-11,929
892,6	-12,665
892,9	-12,823
893,1	-12,088
893,3	-11,246
893,5	-12,072
893,7	-12,367
893,9	-10,575
894,1	-11,194
894,3	-12,231
894,6	-11,186
894,8	-11,944
895	-11,744
895,2	-12,178
895,4	-12,487
895,6	-13,291
895,8	-13,117
896	-11,254
896,3	-11,839
896,5	-13,6
896,7	-12,672
896,9	-11,533
897,1	-11,375
897,3	-12,22
897,5	-10,937
897,7	-10,53
898	-8,999
898,2	-10,036
898,4	-11,299
898,6	-10,839
898,8	-11,28
899	-9,18
899,2	-7,679
899,4	-6,023
899,6	-6,438
899,9	-7,26
900,1	-6,117
900,3	-5,536
900,5	-5,397
900,7	-5,352
900,9	-6,272
901,1	-5,25
901,3	-6,457
901,6	-6,996
901,8	-6,23
902	-6,917
902,2	-7,098
902,4	-7,656
902,6	-8,388
902,8	-9,447
903	-10,779
903,2	-12,212
903,5	-12,951
903,7	-14,603
903,9	-14,528
904,1	-14,92
904,3	-14,554
904,5	-16,002
904,7	-14,298
904,9	-13,408
905,1	-13,441
905,4	-11,718
905,6	-11,673
905,8	-12,382
906	-13,098
906,2	-13,027
906,4	-13,276
906,6	-14,95
906,8	-13,189
907	-14,309
907,3	-14,045
907,5	-14,448
907,7	-15,493
907,9	-13,17
908,1	-13,837
908,3	-15,493
908,5	-14,271
908,7	-14,565
908,9	-14,931
909,2	-15,316
909,4	-13,966
909,6	-12,929
909,8	-13,362
910	-13,977
910,2	-12,076
910,4	-12,947
910,6	-12,687
910,8	-13,898
911,1	-12,08
911,3	-11,424
911,5	-11,914
911,7	-10,915
911,9	-10,696
912,1	-11,043
912,3	-12,8
912,5	-12,167
912,7	-12,152
912,9	-11,556
913,2	-10,598
913,4	-12,849
913,6	-10,903
913,8	-10,964
914	-8,814
914,2	-8,256
914,4	-9,414
914,6	-9,636
914,8	-9,014
915,1	-8,177
915,3	-7,309
915,5	-5,842
915,7	-5,438
915,9	-5,254
916,1	-6,215
916,3	-5,714
916,5	-4,937
916,7	-4,643
916,9	-2,338
917,2	-2,489
917,4	-0,505
917,6	-3,153
917,8	-4,805
918	-6,015
918,2	-7,034
918,4	-9,221
918,6	-9,263
918,8	-8,259
919	-10,383
919,2	-9,444
919,5	-8,241
919,7	-9,723
919,9	-9,877
920,1	-11,582
920,3	-12,189
920,5	-12,548
920,7	-12,51
920,9	-12,774
921,1	-11,903
921,3	-12,48
921,6	-14,35
921,8	-14,23
922	-15,082
922,2	-16,775
922,4	-16,828
922,6	-17,247
922,8	-15,874
923	-16,44
923,2	-17,3
923,4	-19,555
923,6	-20,585
923,9	-22,123
924,1	-21,78
924,3	-22,595
924,5	-21,086
924,7	-21,098
924,9	-20,109
925,1	-20,079
925,3	-19,136
925,5	-18,031
925,7	-19,736
925,9	-20,811
926,2	-19,581
926,4	-18,944
926,6	-18,359
926,8	-19,05
927	-19,683
927,2	-19,514
927,4	-20,37
927,6	-21,079
927,8	-19,793
928	-20,109
928,2	-20,815
928,5	-20,513
928,7	-18,963
928,9	-18,914
929,1	-16,372
929,3	-16,372
929,5	-14,388
929,7	-15,316
929,9	-14,249
930,1	-13,988
930,3	-14,056
930,5	-12,574
930,8	-10,481
931	-9,979
931,2	-9,821
931,4	-10,224
931,6	-9,383
931,8	-9,18
932	-9,557
932,2	-10,424
932,4	-11,933
932,6	-13,106
932,8	-14,701
933	-16,515
933,3	-15,667
933,5	-15,636
933,7	-15,802
933,9	-15,127
934,1	-13,924
934,3	-14,196
934,5	-12,797
934,7	-12,996
934,9	-13,479
935,1	-13,072
935,3	-13,23
935,5	-15,867
935,7	-16,527
936	-17,952
936,2	-18,133
936,4	-18,442
936,6	-16,847
936,8	-16,738
937	-17,673
937,2	-19,042
937,4	-19,959
937,6	-20,973
937,8	-20,475
938	-23,911
938,2	-25,393
938,4	-23,832
938,7	-22,108
938,9	-21,535
939,1	-20,871
939,3	-19,257
939,5	-18,171
939,7	-18,763
939,9	-19,212
940,1	-18,982
940,3	-19,302
940,5	-20,162
940,7	-20,724
940,9	-20,155
941,1	-20,098
941,4	-20,698
941,6	-20,735
941,8	-21,693
942	-21,022
942,2	-21,199
942,4	-20,192
942,6	-18,178
942,8	-18,111
943	-19,038
943,2	-18,827
943,4	-18,846
943,6	-18,227
943,8	-18,329
944	-17,914
944,3	-18,061
944,5	-16,858
944,7	-14,682
944,9	-15,603
945,1	-14,596
945,3	-14,384
945,5	-13,743
945,7	-13,845
945,9	-15,059
946,1	-13,804
946,3	-14,388
946,5	-15,252
946,7	-15,135
946,9	-14,407
947,1	-14,92
947,4	-16,078
947,6	-17,002
947,8	-16,692
948	-17,164
948,2	-15,633
948,4	-16,263
948,6	-15,535
948,8	-16,617
949	-17,552
949,2	-16,998
949,4	-17,635
949,6	-18,473
949,8	-18,476
950	-19,472
950,2	-17,496
950,5	-16,968
950,7	-17,847
950,9	-17,092
951,1	-19,811
951,3	-18,039
951,5	-19,547
951,7	-20,909
951,9	-21,475
952,1	-21,422
952,3	-19,634
952,5	-20,117
952,7	-19,004
952,9	-17,922
953,1	-18,722
953,3	-19,035
953,5	-18,684
953,8	-17,409
954	-15,207
954,2	-15,795
954,4	-16,217
954,6	-17,473
954,8	-16,191
955	-16,112
955,2	-14,878
955,4	-15,293
955,6	-16,376
955,8	-14,886
956	-14,365
956,2	-13,958
956,4	-13,076
956,6	-15,225
956,8	-15,614
957	-15,222
957,2	-14,486
957,5	-13,653
957,7	-16,142
957,9	-16,73
958,1	-15,697
958,3	-16,723
958,5	-17,918
958,7	-18,495
958,9	-18,54
959,1	-18,499
959,3	-18,68
959,5	-18,435
959,7	-19,204
959,9	-19,431
960,1	-20,743
960,3	-20,072
960,5	-18,261
960,7	-16,877
960,9	-15,523
961,1	-17,032
961,4	-17,865
961,6	-20,075
961,8	-20,637
962	-20,803
962,2	-20,192
962,4	-22,24
962,6	-22,025
962,8	-23,044
963	-23,357
963,2	-23,79
963,4	-23,557
963,6	-24,937
963,8	-25,68
964	-27,124
964,2	-27,89
964,4	-27,038
964,6	-25,397
964,8	-24,658
965	-25,088
965,2	-25,906
965,5	-26,664
965,7	-26,197
965,9	-26,038
966,1	-25,619
966,3	-23,745
966,5	-20,875
966,7	-23,771
966,9	-23,628
967,1	-24,839
967,3	-25,782
967,5	-24,009
967,7	-24,959
967,9	-23,677
968,1	-22,632
968,3	-19,751
968,5	-20,751
968,7	-18,084
968,9	-17,688
969,1	-17,213
969,3	-15,014
969,5	-14,848
969,7	-14,396
969,9	-12,838
970,2	-11,578
970,4	-10,043
970,6	-9,689
970,8	-10,085
971	-9,515
971,2	-8,976
971,4	-8,248
971,6	-7,939
971,8	-6,943
972	-8,769
972,2	-7,113
972,4	-8,116
972,6	-10,141
972,8	-12,17
973	-10,696
973,2	-11,216
973,4	-11,258
973,6	-11,088
973,8	-11,865
974	-10,715
974,2	-11,228
974,4	-12,766
974,6	-14,69
974,8	-14,143
975	-15,09
975,2	-15,614
975,5	-15,629
975,7	-14,78
975,9	-13,853
976,1	-14,045
976,3	-15,173
976,5	-14,837
976,7	-14,811
976,9	-13,853
977,1	-14,701
977,3	-15,527
977,5	-17,364
977,7	-18,046
977,9	-16,828
978,1	-16,632
978,3	-15,033
978,5	-16,632
978,7	-15,15
978,9	-14,207
979,1	-14,158
979,3	-13,837
979,5	-14,626
979,7	-14,622
979,9	-15,01
980,1	-15,772
980,3	-16,319
980,5	-15,9
980,7	-15,207
980,9	-13,589
981,1	-14,494
981,3	-13,66
981,5	-14,301
981,7	-15,327
981,9	-16,802
982,2	-15,67
982,4	-16,319
982,6	-14,754
982,8	-16,274
983	-16,421
983,2	-16,342
983,4	-15,459
983,6	-15,772
983,8	-12,868
984	-13,076
984,2	-12,231
984,4	-12,902
984,6	-14,596
984,8	-13,721
985	-13,012
985,2	-11,654
985,4	-12,28
985,6	-14,728
985,8	-14,354
986	-12,51
986,2	-11,152
986,4	-10,85
986,6	-9,191
986,8	-9,877
987	-8,467
987,2	-9,527
987,4	-10,202
987,6	-10,134
987,8	-9,693
988	-8,72
988,2	-10,247
988,4	-11,593
988,6	-11,341
988,8	-14,049
989	-12,955
989,2	-13,92
989,4	-13,294
989,6	-14,316
989,8	-14,392
990	-14,788
990,2	-14,897
990,4	-16,251
990,6	-14,384
990,8	-12,91
991	-13,102
991,3	-13,841
991,5	-15,689
991,7	-16,206
991,9	-14,324
992,1	-14,86
992,3	-15,01
992,5	-16,04
992,7	-15,576
992,9	-16,059
993,1	-15,595
993,3	-16,097
993,5	-16,862
993,7	-15,259
993,9	-15,523
994,1	-15,874
994,3	-16,1
994,5	-14,671
994,7	-14,12
994,9	-13,822
995,1	-12,774
995,3	-12,721
995,5	-11,929
995,7	-12,778
995,9	-11,28
996,1	-11,22
996,3	-13,253
996,5	-13,147
996,7	-14,29
996,9	-15,829
997,1	-17,447
997,3	-18,774
997,5	-19,106
997,7	-18,872
997,9	-18,378
998,1	-16,093
998,3	-14,407
998,5	-14,671
998,7	-14,184
998,9	-13,298
999,1	-13,558
999,3	-12,974
999,5	-14,2
999,7	-15,791
999,9	-16,828
1000,1	-17,941
1000,3	-17,515
1000,5	-17,801
1000,7	-18,322
1000,9	-18,771
1001,1	-18,276
1001,3	-17,375
1001,5	-18,608
1001,7	-17,669
1001,9	-18,092
1002,1	-18,691
1002,3	-18,861
1002,5	-19,495
1002,7	-18,85
1002,9	-18,733
1003,1	-19,287
1003,3	-18,676
1003,5	-17,081
1003,7	-17,918
1003,9	-15,965
1004,1	-15,184
1004,3	-16,723
1004,5	-16,481
1004,7	-16,523
1004,9	-17,952
1005,1	-17,616
1005,3	-17,669
1005,5	-18,45
1005,7	-16,387
1005,9	-15,723
1006,1	-15,112
1006,3	-14,12
1006,5	-14,633
1006,7	-13,245
1006,9	-12,22
1007,1	-12,031
1007,3	-13,245
1007,5	-12,781
1007,7	-12,438
1007,9	-14,256
1008,1	-14,403
1008,3	-15,127
1008,5	-14,411
1008,7	-10,896
1008,9	-11,326
1009,1	-9,342
1009,3	-11,118
1009,5	-11,001
1009,7	-12,008
1009,9	-11,443
1010,1	-13,517
1010,3	-12,725
1010,5	-14,117
1010,7	-15,708
1010,9	-17,164
1011,1	-16,621
1011,3	-17,386
1011,5	-18,216
1011,7	-18,375
1011,9	-19,517
1012,1	-16,798
1012,3	-16,715
1012,5	-17,711
1012,7	-17,677
1012,9	-18,665
1013,1	-20,63
1013,3	-20,358
1013,5	-19,446
1013,7	-19,698
1013,9	-20,464
1014,1	-19,427
1014,3	-18,767
1014,5	-18,378
1014,7	-18,525
1014,9	-20,679
1015,1	-20,505
1015,3	-22,467
1015,5	-21,143
1015,7	-20,958
1015,9	-19,864
1016,1	-20,649
1016,3	-18,665
1016,5	-21,467
1016,7	-20,388
1016,9	-20,528
1017,1	-21,267
1017,3	-21,72
1017,5	-21,022
1017,7	-20,694
1017,9	-20,498
1018,1	-19,676
1018,3	-21,09
1018,5	-22,157
1018,7	-20,611
1018,9	-20,151
1019,1	-21,207
1019,2	-22,014
1019,4	-23,624
1019,6	-24,443
1019,8	-26,389
1020	-25,299
1020,2	-25,231
1020,4	-22,942
1020,6	-23,496
1020,8	-24,518
1021	-23,477
1021,2	-23,413
1021,4	-23,13
1021,6	-20,883
1021,8	-20,792
1022	-22,516
1022,2	-20,547
1022,4	-20,573
1022,6	-20,664
1022,8	-21,098
1023	-21,173
1023,2	-19,464
1023,4	-19,174
1023,6	-20,343
1023,8	-16,659
1024	-16,368
1024,2	-18,563
1024,4	-18,246
1024,6	-18,122
1024,8	-19,378
1025	-18,804
1025,2	-17,677
1025,4	-13,886
1025,6	-13,193
1025,8	-13,177
1026	-11,827
1026,2	-11,454
1026,4	-11,341
1026,6	-13,362
1026,8	-11,322
1027	-10,549
1027,2	-10,507
1027,4	-10,956
1027,6	-9,512
1027,8	-11,661
1028	-12,544
1028,1	-10,16
1028,3	-12,302
1028,5	-13,351
1028,7	-12,789
1028,9	-13,966
1029,1	-13,894
1029,3	-14,49
1029,5	-14,203
1029,7	-13,947
1029,9	-17,236
1030,1	-15,21
1030,3	-14,746
1030,5	-14,109
1030,7	-13,249
1030,9	-11,937
1031,1	-13,113
1031,3	-14,399
1031,5	-15,421
1031,7	-15,022
1031,9	-14,222
1032,1	-14,264
1032,3	-15,625
1032,5	-16,662
1032,7	-18,473
1032,9	-20,094
1033,1	-20,43
1033,3	-20,558
1033,5	-20,215
1033,7	-22,384
1033,9	-22,919
1034,1	-22,531
1034,3	-22,01
1034,4	-21,388
1034,6	-21,678
1034,8	-19,857
1035	-17,854
1035,2	-17,579
1035,4	-16,632
1035,6	-16,734
1035,8	-17,055
1036	-16,685
1036,2	-19,555
1036,4	-19,555
1036,6	-21,731
1036,8	-22,768
1037	-23,572
1037,2	-23,56
1037,4	-22,859
1037,6	-24,239
1037,8	-24,145
1038	-24,99
1038,2	-24,65
1038,4	-24,311
1038,6	-22,67
1038,8	-20,502
1039	-18,804
1039,2	-19,374
1039,4	-20,279
1039,5	-19,638
1039,7	-18,265
1039,9	-16,138
1040,1	-16,628
1040,3	-17,205
1040,5	-15,825
1040,7	-16,772
1040,9	-17,779
1041,1	-20,124
1041,3	-20,905
1041,5	-22,474
1041,7	-22,282
1041,9	-21,788
1042,1	-21,942
1042,3	-20,822
1042,5	-20,07
1042,7	-19,085
1042,9	-18,615
1043,1	-18,602
1043,3	-18,212
1043,5	-17,724
1043,7	-17,011
1043,8	-17,136
1044	-16,166
1044,2	-16,608
1044,4	-15,462
1044,6	-16,46
1044,8	-17,453
1045	-19,882
1045,2	-18,918
