Data from mesure_FLMT021711__13__35.txt Node

Date: Mon Nov 04 11:52:17 CET 2024
User: jordan.swietlicki
Spectrometer: FLMT02171
Trigger mode: 0
Integration Time (sec): 1,000000E-1
Scans to average: 15
Electric dark correction enabled: true
Nonlinearity correction enabled: false
Boxcar width: 15
XAxis mode: Wavelengths
Number of Pixels in Spectrum: 3648
>>>>>Begin Spectral Data<<<<<
194,7	-37,04
194,9	-36,374
195,2	-32,723
195,5	-33,979
195,7	-31,567
196	-30,309
196,2	-29,877
196,5	-31,765
196,8	-30,276
197	-29,06
197,3	-28,055
197,6	-25,319
197,8	-25,471
198,1	-24,028
198,4	-22,385
198,6	-21,633
198,9	-18,722
199,2	-15,003
199,4	-11,197
199,7	-4,416
200	-4,612
200,2	-6,125
200,5	-6,136
200,7	-6,536
201	-5,902
201,3	-6,306
201,5	-6,042
201,8	-6,536
202,1	-5,785
202,3	-6,51
202,6	-6,83
202,9	-7,743
203,1	-6,958
203,4	-8,003
203,7	-6,751
203,9	-7,034
204,2	-6,777
204,5	-6,155
204,7	-4,201
205	-3,813
205,2	-2,844
205,5	-2,666
205,8	-3,028
206	0,124
206,3	0,701
206,6	1,546
206,8	2,546
207,1	3,398
207,4	5,05
207,6	7,686
207,9	7,626
208,2	8,259
208,4	9,813
208,7	9,334
208,9	11,107
209,2	11,431
209,5	11,529
209,7	12,046
210	12,51
210,3	12,936
210,5	14,893
210,8	15,538
211,1	16,074
211,3	16,613
211,6	15,991
211,9	16,161
212,1	16,681
212,4	16,968
212,6	17,356
212,9	18,175
213,2	16,84
213,4	17,277
213,7	18,454
214	18,725
214,2	15,478
214,5	15,142
214,8	15,075
215	14,343
215,3	17,816
215,5	18,476
215,8	16,662
216,1	15,919
216,3	17,707
216,6	16,945
216,9	18,261
217,1	18,601
217,4	17,899
217,7	17,285
217,9	14,211
218,2	14,32
218,5	13,438
218,7	11,835
219	11,797
219,2	13,189
219,5	13,313
219,8	14,407
220	14,448
220,3	14,558
220,6	15,237
220,8	14,154
221,1	13,604
221,4	13,328
221,6	12,487
221,9	12,502
222,1	11,624
222,4	12,238
222,7	13,536
222,9	10,247
223,2	9,244
223,5	6,249
223,7	6,487
224	5,525
224,2	5,054
224,5	4,669
224,8	3,896
225	3,108
225,3	2,7
225,6	2,587
225,8	4,699
226,1	6,721
226,4	5,665
226,6	4,699
226,9	6,121
227,1	5,597
227,4	4,556
227,7	3,357
227,9	2,421
228,2	2,715
228,5	1,999
228,7	0,871
229	0,603
229,3	1,343
229,5	5,058
229,8	4,79
230	3,247
230,3	1,923
230,6	2,474
230,8	0,845
231,1	3,206
231,4	3,323
231,6	7,483
231,9	6,743
232,1	8,576
232,4	7,716
232,7	7,373
232,9	7,596
233,2	6,743
233,5	6,091
233,7	7,045
234	5,303
234,2	4,88
234,5	6,347
234,8	9,165
235	8,342
235,3	9,27
235,6	10,085
235,8	10,73
236,1	12,11
236,4	12,137
236,6	13,898
236,9	14,482
237,1	16,251
237,4	15,802
237,7	11,292
237,9	10,488
238,2	9,972
238,5	11,386
238,7	10,764
239	11,405
239,2	10,289
239,5	11,684
239,8	8,689
240	7,577
240,3	9,312
240,6	10,417
240,8	10,432
241,1	10,896
241,3	10,922
241,6	10,443
241,9	9,259
242,1	10,394
242,4	11,36
242,7	10,715
242,9	10,783
243,2	10,685
243,4	10,409
243,7	9,383
244	8,456
244,2	8,444
244,5	8,263
244,8	7,875
245	8,376
245,3	9,579
245,5	9,331
245,8	10,692
246,1	10,7
246,3	10,809
246,6	10,805
246,9	12,446
247,1	12,453
247,4	13,754
247,6	15,154
247,9	14,384
248,2	14,697
248,4	11,978
248,7	11,28
248,9	10,926
249,2	10,307
249,5	10,835
249,7	11,529
250	10,239
250,3	9,44
250,5	8,109
250,8	9,278
251	7,117
251,3	7,837
251,6	9,549
251,8	10,104
252,1	10,243
252,4	7,784
252,6	8,037
252,9	6,924
253,1	5,559
253,4	2,987
253,7	3,681
253,9	5,393
254,2	5,959
254,4	6,491
254,7	6,102
255	6,777
255,2	7,799
255,5	6,879
255,8	5,333
256	5,619
256,3	5,85
256,5	5,872
256,8	6,102
257,1	6,298
257,3	6,321
257,6	7,4
257,8	8,259
258,1	9,376
258,4	10,16
258,6	10,409
258,9	10,221
259,2	9,493
259,4	9,331
259,7	6,396
259,9	5,333
260,2	6,476
260,5	8,953
260,7	8,708
261	8,06
261,2	8,244
261,5	9,251
261,8	8,554
262	9,538
262,3	10,081
262,6	9,791
262,8	9,161
263,1	7,743
263,3	5,589
263,6	6,147
263,9	5,371
264,1	4,971
264,4	6,985
264,6	7,166
264,9	6,664
265,2	7,286
265,4	6,608
265,7	6,823
266	4,899
266,2	6,374
266,5	5,314
266,7	3,93
267	2,187
267,3	3,462
267,5	4,801
267,8	8,218
268	8,969
268,3	8,063
268,6	5,702
268,8	7,437
269,1	6,208
269,3	5,02
269,6	4,258
269,9	4,035
270,1	0,558
270,4	0,747
270,6	0,924
270,9	0,852
271,2	0,294
271,4	-1,003
271,7	-2,915
272	-3,266
272,2	-2,195
272,5	-4,545
272,7	-3,771
273	-2,855
273,3	-2,938
273,5	-0,947
273,8	-2,512
274	-1,49
274,3	-2,953
274,6	-3,055
274,8	-0,121
275,1	1,505
275,3	2,063
275,6	1,154
275,9	-1,716
276,1	-1,558
276,4	-0,826
276,6	0,611
276,9	-0,317
277,2	2,206
277,4	3,202
277,7	5,778
277,9	6,095
278,2	7,55
278,5	8,094
278,7	8,437
279	8,622
279,2	8,361
279,5	9,53
279,8	11,148
280	11,616
280,3	9,406
280,5	8,655
280,8	8,705
281,1	8,309
281,3	9,791
281,6	8,969
281,9	10,952
282,1	10,775
282,4	10,586
282,6	11,997
282,9	11,473
283,2	9,402
283,4	8,32
283,7	7,434
283,9	7,826
284,2	7,837
284,5	6,604
284,7	5,423
285	4,703
285,2	2,844
285,5	4,103
285,8	2,553
286	5,495
286,3	6,468
286,5	5,34
286,8	5,005
287,1	5,978
287,3	6,117
287,6	4,922
287,8	5,254
288,1	4,771
288,4	5,97
288,6	8,912
288,9	8,222
289,1	8,414
289,4	5,148
289,7	5,574
289,9	3,673
290,2	5,514
290,4	6,853
290,7	5,616
290,9	3,639
291,2	5,408
291,5	7,264
291,7	8,429
292	9,742
292,2	9,432
292,5	11,058
292,8	12,725
293	11,118
293,3	12,37
293,5	13,253
293,8	12,849
294,1	11,82
294,3	10,236
294,6	10,013
294,8	10,53
295,1	10,847
295,4	11,593
295,6	13,415
295,9	13,589
296,1	12,072
296,4	12,419
296,7	9,312
296,9	9,764
297,2	8,165
297,4	9,942
297,7	8,935
298	9,817
298,2	8,18
298,5	8,505
298,7	9,327
299	10,854
299,3	10,967
299,5	8,942
299,8	8,787
300	8,757
300,3	8,342
300,5	8,32
300,8	6,728
301,1	9,123
301,3	10,292
301,6	8,18
301,8	5,797
302,1	4,141
302,4	4,488
302,6	4,42
302,9	4,805
303,1	2,41
303,4	2,836
303,7	3,771
303,9	1,731
304,2	3,462
304,4	2,331
304,7	4,122
304,9	2,342
305,2	5,574
305,5	5,197
305,7	5,046
306	5,306
306,2	6,132
306,5	5,868
306,8	5,231
307	3,82
307,3	3,187
307,5	3,575
307,8	1,98
308,1	0,434
308,3	1,58
308,6	0,143
308,8	1,339
309,1	1,622
309,3	2,715
309,6	2,497
309,9	5,808
310,1	5,242
310,4	6,947
310,6	7,441
310,9	5,635
311,2	6,77
311,4	6,709
311,7	5,917
311,9	6,532
312,2	7,505
312,5	7,95
312,7	8,263
313	8,203
313,2	7,034
313,5	6,796
313,7	5,687
314	4,635
314,3	4,047
314,5	5,28
314,8	6,709
315	8,094
315,3	7,826
315,6	6,939
315,8	7,075
316,1	7,882
316,3	6,928
316,6	8,38
316,8	7,162
317,1	6,306
317,4	3,066
317,6	2,659
317,9	1,512
318,1	1,135
318,4	0,592
318,6	0,087
318,9	0,419
319,2	0,072
319,4	-0,411
319,7	-1,026
319,9	-0,894
320,2	-1,569
320,5	-1,041
320,7	-1,897
321	-1,535
321,2	-2,546
321,5	-1,478
321,7	-0,185
322	1,339
322,3	0,641
322,5	-0,645
322,8	-2,697
323	-4,122
323,3	-2,768
323,5	-1,746
323,8	-0,905
324,1	-1,554
324,3	-0,822
324,6	-2,165
324,8	-0,558
325,1	-2,021
325,4	-0,879
325,6	0,241
325,9	0,011
326,1	1,629
326,4	1,086
326,6	1,135
326,9	2,244
327,2	2,244
327,4	2,346
327,7	2,097
327,9	3,402
328,2	3,394
328,4	2,753
328,7	5,631
329	6,596
329,2	7,166
329,5	5,382
329,7	5,883
330	6,212
330,2	8,086
330,5	8,961
330,8	9,021
331	10,496
331,3	8,667
331,5	8,331
331,8	6,679
332	6,811
332,3	5,212
332,6	5,586
332,8	4,831
333,1	6,777
333,3	7,237
333,6	7,087
333,8	7,905
334,1	7,784
334,4	7,298
334,6	6,566
334,9	5,876
335,1	6,434
335,4	4,99
335,6	6,642
335,9	4,288
336,2	2,987
336,4	3,617
336,7	0,743
336,9	1,154
337,2	0,419
337,4	1,328
337,7	1,441
338	-1,61
338,2	-2,7
338,5	-4,017
338,7	-3,534
339	-3,311
339,2	-1,169
339,5	-2,297
339,8	-0,751
340	-0,158
340,3	1,045
340,5	1,282
340,8	4,205
341	4,043
341,3	2,493
341,6	2,568
341,8	2,795
342,1	1,079
342,3	0,792
342,6	2,783
342,8	3,394
343,1	3,074
343,4	3,636
343,6	0,905
343,9	3,281
344,1	4,13
344,4	3,794
344,6	3,545
344,9	2,697
345,1	3,1
345,4	3,051
345,7	2,21
345,9	3,673
346,2	3,556
346,4	2,9
346,7	2,101
346,9	1,558
347,2	-1,101
347,5	0,743
347,7	0,517
348	-0,569
348,2	-0,404
348,5	-0,264
348,7	0,313
349	0,415
349,2	2,27
349,5	2,138
349,8	2,448
350	2,565
350,3	1,991
350,5	0,43
350,8	0,407
351	0,735
351,3	1,422
351,6	1,667
351,8	0,166
352,1	-0,268
352,3	-0,215
352,6	0,641
352,8	0,087
353,1	-0,852
353,3	-1,267
353,6	-2,297
353,9	-3,183
354,1	-4,047
354,4	-3,402
354,6	-1,46
354,9	-2,323
355,1	0,038
355,4	-1,06
355,6	-0,792
355,9	-0,826
356,2	-0,532
356,4	-0,4
356,7	-3,866
356,9	-4,069
357,2	-4,232
357,4	-4,348
357,7	-6,14
358	-3,375
358,2	-3,176
358,5	-2,497
358,7	-3,941
359	-3,764
359,2	-2,806
359,5	-1,901
359,7	-0,117
360	0,471
360,3	2,41
360,5	1,791
360,8	2,519
361	4,088
361,3	3,447
361,5	4,944
361,8	5,951
362	7,385
362,3	6,917
362,6	6,502
362,8	8,901
363,1	8,878
363,3	9,87
363,6	10,315
363,8	12,148
364,1	10,296
364,3	10,522
364,6	10,817
364,8	11,443
365,1	10,526
365,4	13,083
365,6	14,267
365,9	12,917
366,1	14,203
366,4	13,264
366,6	14,992
366,9	15,603
367,1	14,841
367,4	17,19
367,7	16,685
367,9	17,466
368,2	16,134
368,4	14,844
368,7	15,689
368,9	16,666
369,2	15,859
369,4	16,236
369,7	16,643
370	15,753
370,2	16,198
370,5	16,044
370,7	14,78
371	15,203
371,2	14,924
371,5	16,081
371,7	15,467
372	16,647
372,2	16,225
372,5	17,405
372,8	16,293
373	14,841
373,3	11,793
373,5	13,102
373,8	12,785
374	11,82
374,3	13,807
374,5	14,697
374,8	15,527
375	14,795
375,3	13,622
375,6	12,536
375,8	13,102
376,1	13,913
376,3	16,413
376,6	16,134
376,8	13,958
377,1	17,051
377,3	15,757
377,6	14,78
377,8	15,561
378,1	16,896
378,4	17,236
378,6	17,088
378,9	15,214
379,1	16,594
379,4	15,293
379,6	14,743
379,9	13,166
380,1	13,015
380,4	13,128
380,6	13,962
380,9	14,841
381,2	15,851
381,4	15,391
381,7	15,942
381,9	17,205
382,2	17,085
382,4	15,606
382,7	13,8
382,9	15,048
383,2	15,817
383,4	16,9
383,7	18,42
383,9	17,398
384,2	16,206
384,5	17,447
384,7	18,639
385	17,794
385,2	19,585
385,5	20,106
385,7	19,86
386	20,079
386,2	20,136
386,5	18,91
386,7	20,223
387	19,382
387,2	20,6
387,5	22,949
387,8	25,529
388	27,136
388,3	27,784
388,5	28,837
388,8	30,609
389	31,016
389,3	29,576
389,5	29,112
389,8	30,669
390	30,111
390,3	31,035
390,5	32,152
390,8	34,316
391,1	34
391,3	34,697
391,6	33,623
391,8	35,587
392,1	35,746
392,3	37,277
392,6	38,982
392,8	39,827
393,1	43,089
393,3	45,944
393,6	47,268
393,8	48,252
394,1	50,798
394,4	54,773
394,6	56,915
394,9	59,333
395,1	60,521
395,4	60,389
395,6	62,946
395,9	63,504
396,1	64,33
396,4	65,718
396,6	67,351
396,9	68,516
397,1	71,303
397,4	74,686
397,6	74,524
397,9	77,032
398,2	79,6
398,4	82,912
398,7	84,115
398,9	85,657
399,2	88,188
399,4	90,149
399,7	90,421
399,9	92,846
400,2	92,774
400,4	93,86
400,7	95,923
400,9	95,58
401,2	97,009
401,4	99,027
401,7	99,457
401,9	99,721
402,2	98,118
402,5	98,948
402,7	97,466
403	98,084
403,2	99,419
403,5	100,136
403,7	101,72
404	104,364
404,2	104,575
404,5	106,793
404,7	109,911
405	112,05
405,2	113,917
405,5	116,225
405,7	118,288
406	119,812
406,2	121,207
406,5	123,161
406,7	124,205
407	124,054
407,3	124,797
407,5	126,755
407,8	128,693
408	128,693
408,3	130,696
408,5	132,834
408,8	132,563
409	134,656
409,3	136,308
409,5	139,517
409,8	140,702
410	144,518
410,3	145,816
410,5	150,7
410,8	151,511
411	152,676
411,3	153,958
411,5	155,094
411,8	154,792
412	156,945
412,3	159,129
412,6	160,766
412,8	161,501
413,1	160,739
413,3	162,452
413,6	162,983
413,8	163,609
414,1	163,379
414,3	163,312
414,6	165,318
414,8	166,144
415,1	166,985
415,3	168,467
415,6	169,9
415,8	171,714
416,1	172,857
416,3	171,888
416,6	175,112
416,8	174,716
417,1	176,444
417,3	175,467
417,6	177,771
417,8	179,295
418,1	181,384
418,4	181,045
418,6	183,741
418,9	185,288
419,1	186,072
419,4	186,879
419,6	188,482
419,9	188,735
420,1	187,837
420,4	188,079
420,6	188,263
420,9	187,543
421,1	187,547
421,4	188,543
421,6	189,448
421,9	190,236
422,1	189,203
422,4	189,949
422,6	192,374
422,9	192,261
423,1	192,322
423,4	193,43
423,6	194,566
423,9	196,282
424,1	198,458
424,4	196,444
424,6	196,195
424,9	195,708
425,1	196,006
425,4	194,358
425,6	195,346
425,9	193,095
426,2	192,74
426,4	191,266
426,7	190,824
426,9	189,297
427,2	187,981
427,4	187,37
427,7	187,038
427,9	185,265
428,2	184,858
428,4	186,306
428,7	188,931
428,9	189,976
429,2	191,684
429,4	192,676
429,7	193,08
429,9	193,257
430,2	193,547
430,4	193,344
430,7	196,138
430,9	197,085
431,2	197,021
431,4	198,213
431,7	197,884
431,9	197,632
432,2	200,913
432,4	202,636
432,7	203,61
432,9	207,521
433,2	211,054
433,4	211,186
433,7	215,697
433,9	218,058
434,2	219,446
434,4	220,589
434,7	223,836
434,9	227,521
435,2	228,026
435,4	229,829
435,7	233,336
435,9	235,256
436,2	236,787
436,4	237,406
436,7	238,322
436,9	238,016
437,2	237,941
437,4	240,106
437,7	243,983
437,9	245,808
438,2	246,936
438,4	247,694
438,7	249,278
438,9	250,066
439,2	250,56
439,4	250,323
439,7	252,552
439,9	253,174
440,2	253,698
440,5	255,678
440,7	255,403
441	255,256
441,2	256,647
441,5	255,844
441,7	256,553
442	258,793
442,2	260,981
442,5	260,509
442,7	261,799
443	263,968
443,2	265,835
443,5	265,684
443,7	266,374
444	266,302
444,2	267,811
444,5	269,214
444,7	271,281
445	272,68
445,2	273,374
445,5	273,17
445,7	274,332
446	275,094
446,2	276,074
446,5	277,869
446,7	280,2
447	281,611
447,2	284,081
447,5	286,265
447,7	286,789
448	287,328
448,2	289,38
448,5	290,44
448,7	292,356
449	292,356
449,2	293,306
449,5	293,902
449,7	293,246
450	293,657
450,2	296,549
450,5	296,297
450,7	298,401
451	298,318
451,2	300,072
451,5	300,773
451,7	302,976
452	305,465
452,2	306,483
452,5	306,574
452,7	308,448
452,9	309,674
453,2	309,957
453,4	311,737
453,7	314,215
453,9	314,275
454,2	313,54
454,4	313,087
454,7	315,331
454,9	315,241
455,2	313,34
455,4	314,49
455,7	317,911
455,9	315,561
456,2	316,591
456,4	316,625
456,7	317,673
456,9	317,817
457,2	318,45
457,4	321,599
457,7	323,734
457,9	324,511
458,2	325,526
458,4	326,442
458,7	328,422
458,9	328,516
459,2	328,795
459,4	330,956
459,7	331,458
459,9	330,798
460,2	331,066
460,4	330,504
460,7	332,178
460,9	334,728
461,2	334,143
461,4	332,797
461,7	335,09
461,9	336,01
462,2	336,625
462,4	335,565
462,7	337,681
462,9	338,537
463,2	337,956
463,4	335,791
463,7	338,22
463,9	338,103
464,2	338,25
464,4	338,665
464,7	340,525
464,9	340,547
465,2	340,132
465,4	340,038
465,7	340,921
465,9	342,761
466,2	342,539
466,4	342,361
466,6	343,546
466,9	342,448
467,1	339,386
467,4	338,703
467,6	339,751
467,9	339,197
468,1	338,364
468,4	336,44
468,6	334,619
468,9	333,536
469,1	334,935
469,4	334,637
469,6	334,784
469,9	333,457
470,1	334,287
470,4	331,492
470,6	333,529
470,9	335,03
471,1	337,044
471,4	335,867
471,6	335,92
471,9	337,922
472,1	338,714
472,4	338,465
472,6	339,91
472,9	339,665
473,1	339,978
473,4	339,989
473,6	339,567
473,9	339,265
474,1	339,755
474,3	340,185
474,6	343,606
474,8	344,277
475,1	344,918
475,3	344,643
475,6	345,861
475,8	348,117
476,1	350,357
476,3	350,576
476,6	352,593
476,8	352,375
477,1	354,215
477,3	354,747
477,6	357,628
477,8	357,251
478,1	359,559
478,3	359,638
478,6	361,777
478,8	360,593
479,1	360,792
479,3	360,66
479,6	360,717
479,8	359,752
480,1	360,434
480,3	360,329
480,5	360,14
480,8	358,714
481	360,008
481,3	359,261
481,5	359,446
481,8	357,821
482	357,922
482,3	355,418
482,5	353,185
482,8	351,209
483	351,051
483,3	350,312
483,5	351,047
483,8	348,554
484	347,487
484,3	344,183
484,5	344,5
484,8	344,092
485	342,663
485,2	340,012
485,5	341,286
485,7	339,457
486	337,624
486,2	335,071
486,5	336,304
486,7	336,561
487	337,402
487,2	334,49
487,5	335,573
487,7	335,773
488	333,823
488,2	333,238
488,5	332,137
488,7	328,735
489	327,328
489,2	325,658
489,5	325,963
489,7	324,828
489,9	323,655
490,2	324,428
490,4	324,681
490,7	324,798
490,9	323,862
491,2	320,996
491,4	322,456
491,7	324,013
491,9	324,375
492,2	323,538
492,4	320,053
492,7	320,547
492,9	321,532
493,2	320,483
493,4	319,303
493,6	318,586
493,9	319,261
494,1	315,727
494,4	313,676
494,6	310,904
494,9	309,135
495,1	305,929
495,4	303,131
495,6	303,417
495,9	303,297
496,1	302,95
496,4	303,104
496,6	303,108
496,9	305,258
497,1	303,519
497,3	301,603
497,6	300,717
497,8	300,758
498,1	298,718
498,3	296,482
498,6	293,819
498,8	292,122
499,1	290,368
499,3	288,841
499,6	289,052
499,8	286,759
500,1	284,805
500,3	282,889
500,6	279,948
500,8	276,987
501	277,006
501,3	274,343
501,5	270,202
501,8	270,342
502	270,617
502,3	267,962
502,5	265,948
502,8	265,424
503	266,551
503,3	262,968
503,5	259,321
503,8	259,095
504	256,218
504,2	254,916
504,5	251,364
504,7	250,568
505	249,24
505,2	249,712
505,5	249,369
505,7	249,059
506	247,045
506,2	248,196
506,5	246,977
506,7	243,945
506,9	241,264
507,2	239,959
507,4	236,757
507,7	236,795
507,9	235,871
508,2	236,761
508,4	234,667
508,7	232,661
508,9	231,318
509,2	231,217
509,4	229,568
509,7	227,796
509,9	228,807
510,1	228,701
510,4	226,751
510,6	222,433
510,9	223,217
511,1	224,017
511,4	222,746
511,6	221,848
511,9	219,74
512,1	216,821
512,4	216,27
512,6	214,977
512,8	211,858
513,1	208,188
513,3	206,691
513,6	205,54
513,8	204,202
514,1	202,033
514,3	200,366
514,6	199,355
514,8	196,432
515,1	197,458
515,3	195,327
515,5	194,358
515,8	192,521
516	193,181
516,3	191,62
516,5	189,859
516,8	187,845
517	185,439
517,3	183,926
517,5	182,059
517,7	181,622
518	180,513
518,2	179,348
518,5	178,145
518,7	176,048
519	173,476
519,2	173,023
519,5	172,518
519,7	171,624
520	170,013
520,2	169,493
520,4	170,504
520,7	171,782
520,9	170,598
521,2	170,006
521,4	167,773
521,7	169,587
521,9	169,24
522,2	166,876
522,4	168,113
522,6	166,838
522,9	166,759
523,1	166,05
523,4	166,061
523,6	163,413
523,9	163,862
524,1	164,654
524,4	163,889
524,6	163,447
524,8	161,622
525,1	159,913
525,3	159,261
525,6	159,834
525,8	160,947
526,1	159,257
526,3	159,023
526,6	158,265
526,8	156,632
527	158,167
527,3	158,186
527,5	157,39
527,8	156,504
528	153,962
528,3	154,754
528,5	154,731
528,8	153,204
529	152,959
529,2	153,74
529,5	151,729
529,7	154,577
530	154,124
530,2	154,132
530,5	151,273
530,7	149,742
531	148,188
531,2	148,957
531,4	147,588
531,7	147,611
531,9	146,336
532,2	145,865
532,4	146,238
532,7	147,249
532,9	145,997
533,2	143,44
533,4	142,546
533,6	142,105
533,9	140,585
534,1	139,502
534,4	139,597
534,6	139,525
534,9	138,514
535,1	137,926
535,3	136,994
535,6	137,466
535,8	134,309
536,1	135,018
536,3	136,044
536,6	136,957
536,8	135,044
537,1	136,696
537,3	134,547
537,5	132,865
537,8	132,235
538	133,947
538,3	132,789
538,5	131,277
538,8	130,194
539	128,546
539,2	127,404
539,5	127,69
539,7	128,527
540	128,15
540,2	129,225
540,5	129,169
540,7	130,436
540,9	129,451
541,2	129,953
541,4	133,147
541,7	136,214
541,9	136,24
542,2	132,94
542,4	133,076
542,7	133,347
542,9	133,411
543,1	132,54
543,4	134,433
543,6	133,419
543,9	132,808
544,1	131,673
544,4	130,715
544,6	129,357
544,8	129,753
545,1	128,995
545,3	129,059
545,6	129,402
545,8	130,243
546,1	130,1
546,3	130,673
546,5	131,307
546,8	133,46
547	133,596
547,3	133,046
547,5	132,412
547,8	130,296
548	130,292
548,2	130,609
548,5	128,599
548,7	127,958
549	124,594
549,2	124,19
549,5	122,98
549,7	123,119
549,9	122,636
550,2	121,437
550,4	121,305
550,7	121,829
550,9	118,744
551,2	119,28
551,4	118,122
551,6	117,507
551,9	117,073
552,1	116,708
552,4	116,27
552,6	114,814
552,9	114,29
553,1	113,2
553,3	112,857
553,6	113,393
553,8	112,005
554,1	114,053
554,3	110,477
554,5	108,833
554,8	107,351
555	106,887
555,3	105,405
555,5	104,699
555,8	102,814
556	103,421
556,2	100,796
556,5	100,558
556,7	97,752
557	98,593
557,2	97,428
557,5	97,888
557,7	98,835
557,9	96,892
558,2	96,108
558,4	97,681
558,7	94,735
558,9	95,456
559,2	95,12
559,4	94,894
559,6	95,248
559,9	95,572
560,1	95,731
560,4	96,097
560,6	95,316
560,8	94,697
561,1	93,457
561,3	94,203
561,6	91,801
561,8	92,763
562,1	91,929
562,3	91,933
562,5	91,307
562,8	92,529
563	90,99
563,3	92,272
563,5	92,544
563,7	93,419
564	92,159
564,2	92,155
564,5	90,632
564,7	92,091
565	92,291
565,2	89,934
565,4	91,126
565,7	92,291
565,9	90,636
566,2	91,48
566,4	90,349
566,6	92,065
566,9	92,401
567,1	92,997
567,4	91,296
567,6	91,982
567,9	90,673
568,1	91,597
568,3	90,824
568,6	91,458
568,8	91,601
569,1	89,949
569,3	88,275
569,5	89,214
569,8	90,526
570	90,13
570,3	90,485
570,5	91,733
570,7	89,987
571	90,266
571,2	90,877
571,5	90,719
571,7	89,636
572	90,662
572,2	89,029
572,4	89,316
572,7	91,201
572,9	91,959
573,2	90,198
573,4	89,715
573,6	89,478
573,9	89,708
574,1	87,275
574,4	84,993
574,6	85,303
574,8	83,677
575,1	83,587
575,3	83,538
575,6	82,9
575,8	82,323
576	80,536
576,3	78,333
576,5	82,237
576,8	84,156
577	84,635
577,3	84,062
577,5	84,775
577,7	84,296
578	84,303
578,2	84,122
578,5	82,535
578,7	83,349
578,9	84,722
579,2	84,375
579,4	83,247
579,7	83,029
579,9	80,649
580,1	79,706
580,4	78,661
580,6	79,268
580,9	80,611
581,1	80,011
581,3	80,015
581,6	77,854
581,8	78,925
582,1	78,544
582,3	79,996
582,5	80,219
582,8	81,712
583	82,293
583,3	84,488
583,5	84,19
583,7	85,352
584	83,187
584,2	82,878
584,5	81,984
584,7	81,988
584,9	82,04
585,2	81,841
585,4	81,595
585,7	81,969
585,9	81,313
586,1	80,015
586,4	78,846
586,6	80,588
586,9	80,132
587,1	79,917
587,3	79,804
587,6	79,925
587,8	79,476
588,1	78,763
588,3	76,602
588,5	76,643
588,8	75,274
589	76,662
589,3	75,991
589,5	74,554
589,7	75,38
590	74,328
590,2	73,634
590,5	71,665
590,7	69,651
590,9	71,073
591,2	70,511
591,4	70,409
591,7	71,62
591,9	74,2
592,1	73,849
592,4	73,641
592,6	72,502
592,9	72,619
593,1	72,831
593,3	73,468
593,6	73,404
593,8	73,728
594,1	72,959
594,3	73,242
594,5	72,808
594,8	73,396
595	74,019
595,3	74,573
595,5	77,292
595,7	79,461
596	79,977
596,2	81,279
596,4	83,379
596,7	84,16
596,9	85,027
597,2	83,349
597,4	85,227
597,6	84,149
597,9	84,42
598,1	84,993
598,4	85,91
598,6	86,811
598,8	86,464
599,1	84,186
599,3	83,459
599,6	82,433
599,8	82,949
600	84,564
600,3	85,227
600,5	84,383
600,7	85,344
601	86,355
601,2	86,43
601,5	86,868
601,7	87,139
601,9	88,278
602,2	89,64
602,4	88,508
602,7	87,094
602,9	85,684
603,1	85,454
603,4	84,858
603,6	85,322
603,9	84,797
604,1	85,363
604,3	86,174
604,6	87,2
604,8	86,121
605	86,932
605,3	87,17
605,5	87,879
605,8	86,404
606	87,358
606,2	87,449
606,5	87,698
606,7	85,265
607	85,997
607,2	84,315
607,4	81,656
607,7	79,8
607,9	79,646
608,1	80,637
608,4	80,06
608,6	79,996
608,9	79,555
609,1	79,585
609,3	78,446
609,6	77,081
609,8	78,45
610,1	78,918
610,3	75,538
610,5	74,162
610,8	74,049
611	73,936
611,2	72,932
611,5	71,786
611,7	70,16
612	69,429
612,2	68,433
612,4	67,4
612,7	66,457
612,9	67,302
613,1	66,415
613,4	65,352
613,6	64,858
613,9	65,725
614,1	65,733
614,3	65,027
614,6	65,801
614,8	68,007
615	68,629
615,3	69,119
615,5	68,267
615,8	66,517
616	66,721
616,2	65,876
616,5	66,611
616,7	67,637
616,9	67,317
617,2	65,604
617,4	66,6
617,7	68,482
617,9	68,226
618,1	66,385
618,4	65,431
618,6	64,126
618,8	65,608
619,1	66,834
619,3	67,045
619,6	65,831
619,8	65,51
620	65,423
620,3	64,307
620,5	65,397
620,7	63,975
621	62,915
621,2	61,143
621,5	60,796
621,7	61,78
621,9	61,32
622,2	58,91
622,4	60,158
622,6	59,027
622,9	57,466
623,1	59,118
623,4	58,431
623,6	58,627
623,8	58,673
624,1	57,469
624,3	58,269
624,5	59,619
624,8	59,97
625	59,706
625,3	60,675
625,5	63,3
625,7	63,858
626	63,956
626,2	62,806
626,4	61,075
626,7	60,777
626,9	62,723
627,1	63,055
627,4	62,863
627,6	61,844
627,9	62,206
628,1	62,218
628,3	63,104
628,6	63,255
628,8	65,065
629	64,62
629,3	65,642
629,5	67,211
629,8	64,435
630	65,484
630,2	64,76
630,5	64,582
630,7	64,443
630,9	64,797
631,2	62,666
631,4	62,459
631,6	61,309
631,9	60,204
632,1	58,05
632,4	58,227
632,6	57,994
632,8	57,224
633,1	57,028
633,3	58,122
633,5	57,454
633,8	57,417
634	59,834
634,2	59,514
634,5	58,748
634,7	60,588
635	59,887
635,2	58,94
635,4	60,125
635,7	61,652
635,9	61,294
636,1	61,105
636,4	60,637
636,6	58,299
636,8	58,28
637,1	59,91
637,3	59,955
637,5	60,724
637,8	60,215
638	60,106
638,3	59,423
638,5	60,992
638,7	60,121
639	62,595
639,2	63,391
639,4	62,81
639,7	62,572
639,9	61,105
640,1	63,44
640,4	65,099
640,6	64,149
640,9	65,548
641,1	66,777
641,3	64,311
641,6	64,058
641,8	64,756
642	62,798
642,3	63,183
642,5	63,696
642,7	61,354
643	61,245
643,2	60,389
643,4	59,08
643,7	59,483
643,9	60,456
644,1	59,781
644,4	61,686
644,6	60,958
644,9	61,55
645,1	62,018
645,3	62,331
645,6	62,169
645,8	60,747
646	63,462
646,3	61,049
646,5	60,03
646,7	62,361
647	62,312
647,2	62,482
647,4	60,313
647,7	58,243
647,9	59,872
648,1	59,732
648,4	58,989
648,6	59,223
648,9	59,759
649,1	61,06
649,3	62,998
649,6	63,919
649,8	64,051
650	65,695
650,3	63,406
650,5	64,831
650,7	64,628
651	63,304
651,2	64,545
651,4	63,5
651,7	60,871
651,9	61,429
652,1	61,282
652,4	61,165
652,6	62,105
652,8	63,621
653,1	63,941
653,3	62,485
653,5	62,878
653,8	62,651
654	62,716
654,3	61,924
654,5	63,274
654,7	62,331
655	61,018
655,2	59,487
655,4	57,454
655,7	58,703
655,9	60,732
656,1	62,286
656,4	60,69
656,6	59,216
656,8	63,922
657,1	65,985
657,3	65,291
657,5	64,741
657,8	65,559
658	66,702
658,2	68,173
658,5	67,09
658,7	67,852
658,9	68,316
659,2	66,366
659,4	65,529
659,6	65,838
659,9	65,917
660,1	64,597
660,3	64,96
660,6	65,061
660,8	65,239
661	65,374
661,3	64,428
661,5	63,9
661,8	63,617
662	63,104
662,2	64,786
662,5	64,639
662,7	66,14
662,9	63,93
663,2	63,134
663,4	59,793
663,6	59,77
663,9	61,222
664,1	56,481
664,3	55,222
664,6	55,244
664,8	54,946
665	54,961
665,3	54,328
665,5	53,702
665,7	55,316
666	56,202
666,2	55,674
666,4	57,997
666,7	58,016
666,9	57,175
667,1	57,096
667,4	57,881
667,6	57,835
667,8	57,496
668,1	57,798
668,3	57,994
668,5	58,71
668,8	59,54
669	59,17
669,2	61,558
669,5	61,844
669,7	62,7
669,9	62,037
670,2	62,753
670,4	61,939
670,6	62,757
670,9	63,79
671,1	62,353
671,3	62,376
671,6	60,935
671,8	62,384
672	63,662
672,3	64,02
672,5	65,216
672,7	65,325
673	65,563
673,2	65,216
673,4	67,449
673,7	67,366
673,9	67,683
674,1	67,758
674,4	67,437
674,6	67,324
674,8	67,124
675,1	67,143
675,3	66,057
675,5	66,823
675,8	66,811
676	67,332
676,2	68,957
676,5	68,011
676,7	68,772
676,9	68,95
677,2	69,534
677,4	69,779
677,6	70,1
677,9	71,194
678,1	70,884
678,3	72,389
678,5	71,661
678,8	71,024
679	70,315
679,2	71,077
679,5	71,925
679,7	71,028
679,9	72,54
680,2	71,137
680,4	73,777
680,6	71,537
680,9	72,005
681,1	72,94
681,3	75,354
681,6	75,203
681,8	76,108
682	76,44
682,3	78,62
682,5	80,336
682,7	78,97
683	78,28
683,2	77,138
683,4	75,508
683,7	74,773
683,9	76,542
684,1	76,643
684,4	77,417
684,6	76,647
684,8	75,523
685,1	75,173
685,3	74,12
685,5	74,92
685,7	75,663
686	76,462
686,2	76,628
686,4	76,749
686,7	74,139
686,9	74,569
687,1	72,812
687,4	73,393
687,6	70,696
687,8	71,352
688,1	71,371
688,3	70,458
688,5	68,61
688,8	70,338
689	69,5
689,2	71,548
689,5	69,828
689,7	68,512
689,9	68,893
690,2	69,127
690,4	70,262
690,6	69,651
690,8	70,541
691,1	67,973
691,3	67
691,5	66,317
691,8	66,227
692	68,61
692,2	70,843
692,5	70,994
692,7	70,1
692,9	69,821
693,2	69,176
693,4	69,753
693,6	69,414
693,9	71,039
694,1	71,537
694,3	72,951
694,5	72,416
694,8	72,261
695	72,238
695,2	71,401
695,5	71,726
695,7	71,42
695,9	71,465
696,2	70,628
696,4	68,403
696,6	68,361
696,9	68,712
697,1	71,993
697,3	73,543
697,6	74,117
697,8	75,078
698	75,523
698,2	75,799
698,5	76,908
698,7	78,009
698,9	80,204
699,2	80,147
699,4	76,938
699,6	78,329
699,9	76,742
700,1	77,371
700,3	78,903
700,6	78,642
700,8	79,333
701	79,453
701,2	78,91
701,5	78,861
701,7	79,951
701,9	79,827
702,2	82,022
702,4	83,266
702,6	83,79
702,9	84,277
703,1	82,478
703,3	85,016
703,6	86,619
703,8	87,094
704	87,588
704,2	84,454
704,5	84,262
704,7	85,623
704,9	86,174
705,2	86,393
705,4	87,226
705,6	87,49
705,9	88,116
706,1	87,747
706,3	86,86
706,5	87,615
706,8	88,177
707	89,372
707,2	89,761
707,5	88,822
707,7	88,799
707,9	88,871
708,2	88,467
708,4	88,837
708,6	88,776
708,8	88,252
709,1	89,693
709,3	87,354
709,5	86,219
709,8	87,041
710	88,154
710,2	88,233
710,5	87,298
710,7	86,34
710,9	86,74
711,1	86,879
711,4	87,139
711,6	86,287
711,8	85,665
712,1	85,695
712,3	85,525
712,5	85,073
712,8	86,464
713	83,787
713,2	82,897
713,4	82,61
713,7	82,855
713,9	81,407
714,1	82,169
714,4	81
714,6	80,177
714,8	79,046
715,1	78,258
715,3	78,114
715,5	75,595
715,7	74,558
716	73,03
716,2	70,937
716,4	70,805
716,7	69,991
716,9	69,372
717,1	67,113
717,3	67,494
717,6	66,2
717,8	64,929
718	63,892
718,3	62,791
718,5	62,448
718,7	62,731
718,9	62,519
719,2	60,83
719,4	60,547
719,6	58,737
719,9	56,519
720,1	57,488
720,3	56,176
720,6	53,83
720,8	52,563
721	52,137
721,2	51,084
721,5	51,303
721,7	50,696
721,9	51,047
722,2	49,327
722,4	48,999
722,6	51,982
722,8	52,321
723,1	54,433
723,3	56,074
723,5	55,576
723,8	56,474
724	55,116
724,2	55,203
724,4	56,734
724,7	58,763
724,9	59,359
725,1	60,234
725,4	61,622
725,6	60,521
725,8	59,672
726	58,054
726,3	57,009
726,5	56,429
726,7	57,039
727	54,89
727,2	53,992
727,4	54,86
727,6	55,931
727,9	56,881
728,1	56,666
728,3	56,576
728,6	57,617
728,8	59,796
729	58,714
729,2	61,305
729,5	61,335
729,7	60,347
729,9	61,188
730,2	60,177
730,4	60,087
730,6	61,316
730,8	60,483
731,1	62,123
731,3	62,369
731,5	60,849
731,7	59,019
732	59,906
732,2	60,215
732,4	59,808
732,7	61,437
732,9	62,161
733,1	62,806
733,3	64,322
733,6	65,205
733,8	65,736
734	71,752
734,3	72,457
734,5	75,738
734,7	77,741
734,9	77,062
735,2	79,898
735,4	80,607
735,6	79,608
735,9	79,762
736,1	81,712
736,3	82,727
736,5	83,323
736,8	83,836
737	82,576
737,2	82,723
737,4	82,32
737,7	82,934
737,9	85,906
738,1	84,907
738,4	85,902
738,6	86,687
738,8	87,675
739	85,695
739,3	85,654
739,5	84,465
739,7	84,073
739,9	86,596
740,2	88,444
740,4	88,923
740,6	88,278
740,9	88,727
741,1	86,86
741,3	86
741,5	83,651
741,8	83,557
742	84,752
742,2	84,696
742,4	85,303
742,7	86,845
742,9	87,724
743,1	86,615
743,4	84,032
743,6	83,255
743,8	83,568
744	85,457
744,3	85,997
744,5	85,261
744,7	85,318
744,9	84,895
745,2	88,082
745,4	87,716
745,6	87,143
745,8	87,2
746,1	89,41
746,3	90,937
746,5	94
746,8	93,321
747	92,435
747,2	92,065
747,4	93,807
747,7	94,102
747,9	94,977
748,1	92,619
748,3	94,294
748,6	94,449
748,8	93,132
749	92,733
749,2	91,069
749,5	89,983
749,7	89,38
749,9	88,607
750,2	90,975
750,4	91,827
750,6	93,155
750,8	91,812
751,1	91,137
751,3	90,455
751,5	92,231
751,7	92,676
752	91,68
752,2	89,983
752,4	89,221
752,6	89,18
752,9	88,644
753,1	87,803
753,3	87,449
753,5	85,537
753,8	87,573
754	86,057
754,2	85,416
754,4	84,326
754,7	84,069
754,9	82,787
755,1	83,134
755,4	82,682
755,6	83,327
755,8	84,269
756	82,765
756,3	81,086
756,5	79,031
756,7	76,048
756,9	74,264
757,2	70,549
757,4	69,048
757,6	64,458
757,8	61,735
758,1	60,6
758,3	60,596
758,5	57,417
758,7	53,046
759	49,236
759,2	48,041
759,4	46,634
759,6	45,352
759,9	43,285
760,1	42,391
760,3	38,416
760,5	36,519
760,8	33,245
761	31,763
761,2	29,877
761,4	28,486
761,7	27,837
761,9	28,041
762,1	26,608
762,3	25,631
762,6	23,232
762,8	20,973
763	20,268
763,2	22,304
763,5	23,492
763,7	23,93
763,9	24,477
764,1	25,269
764,4	25,48
764,6	27,6
764,8	29,972
765	29,421
765,3	28,35
765,5	29,221
765,7	31,631
765,9	33,604
766,2	34,324
766,4	35,663
766,6	34,988
766,8	36,421
767,1	35,701
767,3	37,545
767,5	38,842
767,7	40,694
768	41,599
768,2	43,228
768,4	42,572
768,6	41,618
768,9	39,781
769,1	41,15
769,3	42,319
769,5	42,006
769,8	44,205
770	46,031
770,2	44,967
770,4	45,895
770,7	46,932
770,9	47,667
771,1	47,011
771,3	48,045
771,6	48,128
771,8	48,011
772	48,011
772,2	46,502
772,5	47,958
772,7	47,535
772,9	47,388
773,1	45,616
773,4	46,268
773,6	47,185
773,8	45,718
774	46,4
774,3	46,185
774,5	45,951
774,7	45,408
774,9	45,054
775,2	44,582
775,4	46,366
775,6	45,963
775,8	47,06
776	47,882
776,3	46,574
776,5	47,256
776,7	46,287
776,9	46,574
777,2	45,97
777,4	44,398
777,6	43,477
777,8	43,179
778,1	45,156
778,3	43,968
778,5	43,968
778,7	44,266
779	43,428
779,2	45,382
779,4	44,571
779,6	44,122
779,9	43,176
780,1	43,858
780,3	42,731
780,5	41,859
780,7	41,927
781	42,497
781,2	42,798
781,4	41,81
781,6	41,362
781,9	41,335
782,1	40,17
782,3	39,031
782,5	38,82
782,8	37,82
783	38,978
783,2	37,926
783,4	37,507
783,7	36,387
783,9	35,207
784,1	34,218
784,3	34,43
784,5	34,23
784,8	32,001
785	29,391
785,2	28,275
785,4	27,807
785,7	26,332
785,9	27,449
786,1	27,113
786,3	26,932
786,6	27,664
786,8	28,399
787	28,018
787,2	28,49
787,4	28,667
787,7	29,157
787,9	28,942
788,1	28,622
788,3	28,32
788,6	27,113
788,8	25,197
789	23,451
789,2	22,24
789,5	21,878
789,7	21,196
789,9	18,367
790,1	18,069
790,3	17,847
790,6	18,295
790,8	17,088
791	18,457
791,2	19,638
791,5	21,486
791,7	21,871
791,9	22,387
792,1	23,145
792,3	21,758
792,6	22,003
792,8	19,883
793	20,803
793,2	21,196
793,5	20,8
793,7	20,487
793,9	19,796
794,1	18,375
794,3	18,148
794,6	18,284
794,8	16,493
795	17,447
795,2	16,459
795,5	17,669
795,7	18,276
795,9	20,321
796,1	19,461
796,3	19,227
796,6	21,893
796,8	22,014
797	24,552
797,2	25,653
797,5	26,242
797,7	27,498
797,9	25,469
798,1	25,337
798,3	32,974
798,6	33,551
798,8	35,689
799	36,066
799,2	37,285
799,5	37,711
799,7	39,491
799,9	37,835
800,1	36,455
800,3	36,515
800,6	36,44
800,8	37,036
801	38,412
801,2	37,707
801,5	38,571
801,7	38,714
801,9	37,021
802,1	38,337
802,3	38,269
802,6	37,831
802,8	36,398
803	38,31
803,2	39,555
803,4	37,198
803,7	38,05
803,9	35,897
804,1	34,901
804,3	34,313
804,6	33,415
804,8	35,12
805	33,162
805,2	22,497
805,4	21,641
805,7	19,559
805,9	18,657
806,1	19,008
806,3	19,019
806,5	18,329
806,8	17,07
807	17,862
807,2	17,786
807,4	18,974
807,6	16,527
807,9	15,075
808,1	15,768
808,3	14,724
808,5	17,76
808,8	18,706
809	17,458
809,2	19,283
809,4	19,672
809,6	19,823
809,9	17,632
810,1	16,395
810,3	16,911
810,5	15,859
810,7	14,724
811	13,864
811,2	13,076
811,4	13,739
811,6	12,959
811,8	14,207
812,1	15,591
812,3	15,738
812,5	16,059
812,7	15,882
812,9	15,855
813,2	17,055
813,4	15,644
813,6	16,387
813,8	15,142
814	14,271
814,3	13,57
814,5	16,138
814,7	14,829
814,9	12,08
815,2	11,978
815,4	9,776
815,6	9,063
815,8	8,373
816	6,774
816,3	6,732
816,5	5,763
816,7	6,577
816,9	7,479
817,1	7,328
817,4	6,551
817,6	7,064
817,8	6,883
818	6,034
818,2	5,963
818,5	5,103
818,7	3,149
818,9	1,184
819,1	2,199
819,3	1,991
819,6	3,176
819,8	4,477
820	1,693
820,2	1,275
820,4	1,939
820,7	1,81
820,9	2,776
821,1	2,421
821,3	0,928
821,5	2,014
821,8	3,809
822	2,764
822,2	3,587
822,4	2,61
822,6	3,304
822,9	3,013
823,1	1,192
823,3	2,391
823,5	1,927
823,7	2,267
823,9	1,365
824,2	0,841
824,4	0,551
824,6	1,478
824,8	1,452
825	0,769
825,3	0,645
825,5	1,331
825,7	2,55
825,9	0,196
826,1	-0,913
826,4	-1,561
826,6	-3,455
826,8	-3,949
827	-3,164
827,2	-3,243
827,5	-1,965
827,7	-1,033
827,9	-0,709
828,1	0,543
828,3	1,652
828,6	1,98
828,8	3,198
829	1,592
829,2	1,49
829,4	3,485
829,6	3,025
829,9	4,465
830,1	3,594
830,3	3,289
830,5	2,753
830,7	2,719
831	3,021
831,2	3,221
831,4	1,893
831,6	2,048
831,8	1,912
832,1	2,919
832,3	4,179
832,5	5,352
832,7	5,883
832,9	6,596
833,1	6,577
833,4	6,581
833,6	8,886
833,8	9,919
834	9,082
834,2	9,753
834,5	8,124
834,7	6,257
834,9	4,982
835,1	3,756
835,3	3,304
835,5	2,738
835,8	3,134
836	4,45
836,2	2,342
836,4	3,628
836,6	2,953
836,9	2,761
837,1	3,738
837,3	3,636
837,5	3,176
837,7	2,976
837,9	1,882
838,2	4,017
838,4	4,054
838,6	5,272
838,8	4,997
839	3,824
839,3	3,04
839,5	4,326
839,7	4,462
839,9	3,771
840,1	3,526
840,3	4,084
840,6	2,055
840,8	3,771
841	2,402
841,2	3,036
841,4	3,82
841,7	4,152
841,9	4,348
842,1	3,971
842,3	3,983
842,5	4,473
842,7	4,658
843	4,922
843,2	2,776
843,4	5,058
843,6	5,687
843,8	6,657
844	6,464
844,3	6,638
844,5	6,868
844,7	7
844,9	6,547
845,1	6,064
845,4	4,824
845,6	5,487
845,8	7,332
846	6,555
846,2	5,872
846,4	7,392
846,7	7,958
846,9	8,501
847,1	7,826
847,3	9,968
847,5	8,599
847,7	8,105
848	6,985
848,2	6,675
848,4	7,268
848,6	7,185
848,8	7,064
849	6,781
849,3	6,54
849,5	5,899
849,7	4,956
849,9	4,56
850,1	1,708
850,3	2,93
850,6	1,426
850,8	0,358
851	-0,686
851,2	-1,154
851,4	-0,973
851,6	-2,342
851,9	-1,995
852,1	-0,939
852,3	-3,764
852,5	-5,642
852,7	-4,658
852,9	-3,643
853,2	-4,224
853,4	-5,208
853,6	-6,664
853,8	-7,954
854	-10,224
854,2	-8,882
854,5	-8,772
854,7	-9,206
854,9	-8,256
855,1	-8,429
855,3	-8,603
855,5	-7,158
855,8	-7,788
856	-9,233
856,2	-10,315
856,4	-7,501
856,6	-6,114
856,8	-5,563
857,1	-4,122
857,3	-4,439
857,5	-3,409
857,7	-0,973
857,9	0,483
858,1	2,406
858,4	2,146
858,6	2,267
858,8	0,732
859	2,851
859,2	2,267
859,4	2,844
859,7	1,478
859,9	0,479
860,1	0,852
860,3	1,693
860,5	1,411
860,7	1,776
860,9	-0,268
861,2	0,407
861,4	1,475
861,6	1,282
861,8	1,923
862	2,135
862,2	2,116
862,5	2,048
862,7	2,938
862,9	3,1
863,1	1,724
863,3	1,377
863,5	1,961
863,8	-1,429
864	-0,256
864,2	0,724
864,4	0,204
864,6	-0,943
864,8	-2,534
865	-2,523
865,3	-1,693
865,5	-1,527
865,7	-1,38
865,9	-0,928
866,1	-3,228
866,3	-3,051
866,6	-2,331
866,8	-3,27
867	-4,318
867,2	-4,062
867,4	-3,639
867,6	-3,232
867,8	-3,99
868,1	-4,835
868,3	-5,34
868,5	-6,713
868,7	-7,758
868,9	-8,644
869,1	-7,682
869,3	-7,43
869,6	-7,701
869,8	-7,69
870	-8,324
870,2	-8,972
870,4	-9,191
870,6	-10,752
870,9	-11,771
871,1	-13,89
871,3	-14,867
871,5	-14,629
871,7	-12,091
871,9	-14,011
872,1	-14,905
872,4	-16,217
872,6	-16,832
872,8	-14,69
873	-15,173
873,2	-15,78
873,4	-13,702
873,6	-12,408
873,9	-13
874,1	-12,834
874,3	-12,815
874,5	-13,592
874,7	-14,35
874,9	-14,117
875,1	-14,565
875,4	-14,309
875,6	-14,52
875,8	-14,611
876	-13,098
876,2	-12,287
876,4	-14,237
876,6	-13,302
876,9	-12,533
877,1	-11,367
877,3	-11,654
877,5	-12,714
877,7	-10,353
877,9	-7,962
878,1	-8,991
878,4	-11,627
878,6	-10,466
878,8	-9,255
879	-9,617
879,2	-8,407
879,4	-10,085
879,6	-8,437
879,9	-8,576
880,1	-8,942
880,3	-10,345
880,5	-8,591
880,7	-7,17
880,9	-7,196
881,1	-5,963
881,3	-4,76
881,6	-5,382
881,8	-5,948
882	-5,208
882,2	-4,186
882,4	-4,122
882,6	-5,91
882,8	-6,642
883,1	-5,793
883,3	-6,811
883,5	-7,143
883,7	-5,638
883,9	-5,295
884,1	-4,744
884,3	-6,385
884,6	-8,324
884,8	-6,234
885	-6,185
885,2	-6,924
885,4	-7,121
885,6	-5,623
885,8	-5,397
886	-4,718
886,3	-6,219
886,5	-7,234
886,7	-7,773
886,9	-6,521
887,1	-7,762
887,3	-9,919
887,5	-8,867
887,8	-8,12
888	-9,93
888,2	-9,282
888,4	-9,108
888,6	-9,647
888,8	-10,982
889	-9,632
889,2	-10,496
889,5	-11,243
889,7	-10,624
889,9	-8,64
890,1	-8,957
890,3	-10,911
890,5	-9,938
890,7	-9,365
890,9	-9,753
891,2	-9,244
891,4	-10,696
891,6	-10,221
891,8	-9,881
892	-10,994
892,2	-12,37
892,4	-14,667
892,6	-15,248
892,9	-15,388
893,1	-14,105
893,3	-12,661
893,5	-12,842
893,7	-12,759
893,9	-11,748
894,1	-12,382
894,3	-12,804
894,6	-11,526
894,8	-11,541
895	-10,183
895,2	-9,715
895,4	-9,059
895,6	-11,56
895,8	-10,779
896	-9,425
896,3	-10,092
896,5	-11,424
896,7	-11,024
896,9	-10,19
897,1	-10,292
897,3	-11,254
897,5	-9,987
897,7	-9,546
898	-8,456
898,2	-9,704
898,4	-9,968
898,6	-9,217
898,8	-8,938
899	-7,219
899,2	-4,914
899,4	-3,474
899,6	-3,655
899,9	-5,454
900,1	-4,405
900,3	-3,134
900,5	-2,316
900,7	-2,508
900,9	-4,899
901,1	-4,68
901,3	-5,989
901,6	-7,271
901,8	-7,113
902	-8,361
902,2	-8,229
902,4	-9,089
902,6	-9,67
902,8	-11,099
903	-11,45
903,2	-12,37
903,5	-13,136
903,7	-14,335
903,9	-14,365
904,1	-14,629
904,3	-14,328
904,5	-15,157
904,7	-13,732
904,9	-13,69
905,1	-12,574
905,4	-11,484
905,6	-11,435
905,8	-13,77
906	-14,728
906,2	-14,758
906,4	-14,215
906,6	-15,105
906,8	-14,354
907	-15,169
907,3	-15,263
907,5	-15,316
907,7	-16,187
907,9	-14,294
908,1	-13,381
908,3	-14,871
908,5	-13,121
908,7	-13,351
908,9	-13,125
909,2	-13,902
909,4	-11,873
909,6	-12,05
909,8	-13,076
910	-14,467
910,2	-12,846
910,4	-13,113
910,6	-12,815
910,8	-14,569
911,1	-12,649
911,3	-10,96
911,5	-11,62
911,7	-12,585
911,9	-12,257
912,1	-12,457
912,3	-13,63
912,5	-12,284
912,7	-12,721
912,9	-12,578
913,2	-13
913,4	-14,995
913,6	-13,8
913,8	-14,132
914	-12,069
914,2	-12,155
914,4	-12,306
914,6	-12,74
914,8	-11,409
915,1	-10,628
915,3	-9,859
915,5	-8,527
915,7	-7,833
915,9	-7,279
916,1	-7,415
916,3	-7,237
916,5	-6,095
916,7	-6,11
916,9	-4,786
917,2	-5,42
917,4	-3,885
917,6	-6,709
917,8	-7,603
918	-8,324
918,2	-7,558
918,4	-9,225
918,6	-9,753
918,8	-8,72
919	-10,025
919,2	-8,169
919,5	-7,475
919,7	-8,263
919,9	-7,664
920,1	-8,931
920,3	-8,98
920,5	-9,104
920,7	-7,434
920,9	-9,481
921,1	-9,429
921,3	-10,341
921,6	-12,582
921,8	-13,355
922	-15,003
922,2	-17,039
922,4	-17,835
922,6	-18,054
922,8	-15,912
923	-16,798
923,2	-17,549
923,4	-18,789
923,6	-19,144
923,9	-18,887
924,1	-18,352
924,3	-20,641
924,5	-18,706
924,7	-19,415
924,9	-18,073
925,1	-17,809
925,3	-16,379
925,5	-16,47
925,7	-18,51
925,9	-18,936
926,2	-17,447
926,4	-18,476
926,6	-18,005
926,8	-18,442
927	-19,016
927,2	-19,404
927,4	-18,386
927,6	-19,329
927,8	-18,556
928	-18,846
928,2	-18,42
928,5	-17,647
928,7	-16,157
928,9	-15,293
929,1	-14,15
929,3	-14,09
929,5	-12,246
929,7	-12,748
929,9	-12,276
930,1	-11,922
930,3	-13,162
930,5	-11,458
930,8	-8,837
931	-9,432
931,2	-9,372
931,4	-10,598
931,6	-9,078
931,8	-9,372
932	-9,289
932,2	-9,862
932,4	-11,695
932,6	-12,069
932,8	-12,118
933	-13,611
933,3	-13,506
933,5	-13,438
933,7	-14,026
933,9	-14,354
934,1	-12,989
934,3	-12,597
934,5	-11,793
934,7	-11,903
934,9	-12,348
935,1	-11,205
935,3	-11,51
935,5	-13,226
935,7	-14,758
936	-15,361
936,2	-15,508
936,4	-15,267
936,6	-14,381
936,8	-14,784
937	-16,014
937,2	-17,428
937,4	-17,598
937,6	-18,48
937,8	-17,428
938	-21,105
938,2	-22,342
938,4	-21,033
938,7	-20,106
938,9	-19,268
939,1	-19,57
939,3	-18,397
939,5	-16,421
939,7	-16,64
939,9	-17,945
940,1	-17,571
940,3	-16,956
940,5	-17,775
940,7	-18,318
940,9	-17,451
941,1	-17,454
941,4	-17,756
941,6	-18,148
941,8	-19,234
942	-17,718
942,2	-17,567
942,4	-17,484
942,6	-15,146
942,8	-15,335
943	-16,081
943,2	-15,09
943,4	-14,848
943,6	-14,422
943,8	-14,652
944	-14,976
944,3	-14,735
944,5	-13,358
944,7	-10,73
944,9	-11,729
945,1	-10,39
945,3	-9,459
945,5	-8,55
945,7	-8,806
945,9	-10,307
946,1	-9,644
946,3	-9,632
946,5	-10,334
946,7	-10,771
946,9	-9,67
947,1	-9,889
947,4	-10,658
947,6	-11,216
947,8	-11,13
948	-11,71
948,2	-10,613
948,4	-11,231
948,6	-11,277
948,8	-11,718
949	-13,144
949,2	-12,348
949,4	-12,525
949,6	-13,573
949,8	-13,506
950	-15,293
950,2	-12,785
950,5	-11,107
950,7	-12,536
950,9	-11,567
951,1	-14,735
951,3	-12,902
951,5	-14,377
951,7	-16,489
951,9	-17,273
952,1	-17,19
952,3	-16,508
952,5	-16,681
952,7	-15,139
952,9	-14,909
953,1	-15,157
953,3	-15,716
953,5	-16,138
953,8	-15,636
954	-13,962
954,2	-15,018
954,4	-14,2
954,6	-15,87
954,8	-15,957
955	-15,35
955,2	-14,049
955,4	-15,157
955,6	-16,791
955,8	-15,391
956	-14,23
956,2	-13,672
956,4	-11,65
956,6	-14,12
956,8	-14,72
957	-14,101
957,2	-13,841
957,5	-13,54
957,7	-15,033
957,9	-14,411
958,1	-13,328
958,3	-14,018
958,5	-15,195
958,7	-15,806
958,9	-15,459
959,1	-15,305
959,3	-14,448
959,5	-14,743
959,7	-14,554
959,9	-14,965
960,1	-15,207
960,3	-16,074
960,5	-13,849
960,7	-13,754
960,9	-11,82
961,1	-12,299
961,4	-12,566
961,6	-14,362
961,8	-14,777
962	-14,592
962,2	-13,641
962,4	-16,379
962,6	-16,361
962,8	-18,197
963	-18,412
963,2	-18,733
963,4	-18,857
963,6	-20,777
963,8	-21,113
964	-22,991
964,2	-24,82
964,4	-23,824
964,6	-22,7
964,8	-21,403
965	-21,248
965,2	-23,108
965,5	-23,443
965,7	-23,176
965,9	-22,331
966,1	-23,655
966,3	-21,961
966,5	-19,97
966,7	-21,742
966,9	-21,727
967,1	-23,228
967,3	-23,587
967,5	-22,753
967,7	-23,538
967,9	-22,557
968,1	-19,796
968,3	-16,862
968,5	-18,857
968,7	-16,195
968,9	-15,678
969,1	-14,562
969,3	-13,042
969,5	-13,294
969,7	-12,401
969,9	-10,202
970,2	-9,636
970,4	-8,531
970,6	-8,335
970,8	-8,358
971	-7,264
971,2	-7,275
971,4	-7,158
971,6	-5,635
971,8	-5,601
972	-6,955
972,2	-5,552
972,4	-5,751
972,6	-7,302
972,8	-8,901
973	-7,547
973,2	-7,615
973,4	-7,332
973,6	-8,105
973,8	-8,584
974	-7,784
974,2	-8,437
974,4	-11,205
974,6	-13,117
974,8	-12,152
975	-12,864
975,2	-14,32
975,5	-15,063
975,7	-13,355
975,9	-12,031
976,1	-13,079
976,3	-14,663
976,5	-13,215
976,7	-13,479
976,9	-12,717
977,1	-14,301
977,3	-15,282
977,5	-16,7
977,7	-16,711
977,9	-15,712
978,1	-15,546
978,3	-14,569
978,5	-15,923
978,7	-14,475
978,9	-13,423
979,1	-13,208
979,3	-12,585
979,5	-13,26
979,7	-13,128
979,9	-13,027
980,1	-14,09
980,3	-13,973
980,5	-13,698
980,7	-11,816
980,9	-10,221
981,1	-11,571
981,3	-11,043
981,5	-10,568
981,7	-10,786
981,9	-12,944
982,2	-11,974
982,4	-11,631
982,6	-8,961
982,8	-11,216
983	-10,945
983,2	-10,266
983,4	-9,421
983,6	-9,429
983,8	-6,943
984	-7,147
984,2	-6,77
984,4	-6,792
984,6	-8,305
984,8	-8,637
985	-6,924
985,2	-6,121
985,4	-6,642
985,6	-7,92
985,8	-7,079
986	-5,355
986,2	-3,922
986,4	-3,658
986,6	-2,651
986,8	-3,342
987	-2,557
987,2	-3,896
987,4	-3,99
987,6	-3,364
987,8	-4,043
988	-3,07
988,2	-4,069
988,4	-5,601
988,6	-6,144
988,8	-9,708
989	-7,682
989,2	-8,316
989,4	-8,075
989,6	-8,097
989,8	-7,871
990	-8,199
990,2	-8,109
990,4	-10,27
990,6	-9,255
990,8	-7,32
991	-6,257
991,3	-8,041
991,5	-8,244
991,7	-9,21
991,9	-9,708
992,1	-10,62
992,3	-10,602
992,5	-11,45
992,7	-10,647
992,9	-12,118
993,1	-11,205
993,3	-12,48
993,5	-13,389
993,7	-12,815
993,9	-13,475
994,1	-13,494
994,3	-12,785
994,5	-11,997
994,7	-11,507
994,9	-10,801
995,1	-10,025
995,3	-10,556
995,5	-10,236
995,7	-10,967
995,9	-10,277
996,1	-11,597
996,3	-13,728
996,5	-14,377
996,7	-14,252
996,9	-15,802
997,1	-18,348
997,3	-19,559
997,5	-19,819
997,7	-20,728
997,9	-20,92
998,1	-18,167
998,3	-18,148
998,5	-18,94
998,7	-19,476
998,9	-17,726
999,1	-17,058
999,3	-16,768
999,5	-17,632
999,7	-18,744
999,9	-19,883
1000,1	-21,279
1000,3	-21,271
1000,5	-21,939
1000,7	-21,46
1000,9	-21,742
1001,1	-21,429
1001,3	-19,483
1001,5	-20,468
1001,7	-19,781
1001,9	-20,256
1002,1	-20,43
1002,3	-19,495
1002,5	-19,981
1002,7	-20,449
1002,9	-20,566
1003,1	-20,422
1003,3	-18,97
1003,5	-18,243
1003,7	-18,737
1003,9	-17,307
1004,1	-16,229
1004,3	-16,647
1004,5	-16,055
1004,7	-16,602
1004,9	-17,202
1005,1	-18,48
1005,3	-18,461
1005,5	-19,6
1005,7	-17,831
1005,9	-17,711
1006,1	-16,055
1006,3	-14,328
1006,5	-14,558
1006,7	-14,256
1006,9	-14,154
1007,1	-14,207
1007,3	-15,124
1007,5	-15,625
1007,7	-15,486
1007,9	-17,017
1008,1	-16,998
1008,3	-17,3
1008,5	-16,813
1008,7	-13,932
1008,9	-13,057
1009,1	-11,318
1009,3	-13,023
1009,5	-13,777
1009,7	-13,875
1009,9	-13,728
1010,1	-15,086
1010,3	-13,634
1010,5	-14,52
1010,7	-15,361
1010,9	-16,3
1011,1	-15,64
1011,3	-15,516
1011,5	-16,244
1011,7	-16,119
1011,9	-17,945
1012,1	-16,146
1012,3	-16,391
1012,5	-17,273
1012,7	-16,915
1012,9	-17,643
1013,1	-18,974
1013,3	-18,861
1013,5	-18,605
1013,7	-18,582
1013,9	-18,944
1014,1	-18,246
1014,3	-18,182
1014,5	-19,118
1014,7	-19,129
1014,9	-21,263
1015,1	-20,709
1015,3	-22,829
1015,5	-21,441
1015,7	-21,048
1015,9	-21,071
1016,1	-21,871
1016,3	-20,622
1016,5	-23,458
1016,7	-22,93
1016,9	-23,149
1017,1	-23,541
1017,3	-23,775
1017,5	-23,409
1017,7	-23,104
1017,9	-22,942
1018,1	-21,429
1018,3	-21,882
1018,5	-22,451
1018,7	-21,324
1018,9	-21,015
1019,1	-21,52
1019,2	-22,233
1019,4	-22,787
1019,6	-22,806
1019,8	-24,013
1020	-22,983
1020,2	-22,87
1020,4	-20,57
1020,6	-20,415
1020,8	-22,316
1021	-20,943
1021,2	-21,648
1021,4	-20,351
1021,6	-18,993
1021,8	-18,303
1022	-18,691
1022,2	-17,383
1022,4	-16,613
1022,6	-16,617
1022,8	-16,263
1023	-16,549
1023,2	-15,267
1023,4	-15,618
1023,6	-16,493
1023,8	-12,974
1024	-12,668
1024,2	-15,176
1024,4	-14,339
1024,6	-14,909
1024,8	-16,395
1025	-16,681
1025,2	-16,621
1025,4	-14,056
1025,6	-13,807
1025,8	-14,222
1026	-13,4
1026,2	-12,955
1026,4	-12,665
1026,6	-14,554
1026,8	-13,396
1027	-12,702
1027,2	-12,095
1027,4	-12,646
1027,6	-12,77
1027,8	-13,92
1028	-14,916
1028,1	-13,909
1028,3	-14,679
1028,5	-16,364
1028,7	-16,134
1028,9	-18,073
1029,1	-18,672
1029,3	-19,118
1029,5	-18,299
1029,7	-18,729
1029,9	-21,18
1030,1	-19,204
1030,3	-18,231
1030,5	-17,975
1030,7	-16,523
1030,9	-14,497
1031,1	-14,003
1031,3	-14,362
1031,5	-15,161
1031,7	-15,075
1031,9	-14,754
1032,1	-15,32
1032,3	-17,115
1032,5	-17,726
1032,7	-19,185
1032,9	-19,845
1033,1	-19,891
1033,3	-20,464
1033,5	-19,536
1033,7	-20,385
1033,9	-21,173
1034,1	-20,475
1034,3	-19,155
1034,4	-19,008
1034,6	-18,85
1034,8	-17,115
1035	-16,289
1035,2	-15,395
1035,4	-14,818
1035,6	-15,731
1035,8	-15,176
1036	-15,938
1036,2	-18,812
1036,4	-18,616
1036,6	-19,894
1036,8	-21,867
1037	-22,648
1037,2	-23,858
1037,4	-24,1
1037,6	-24,526
1037,8	-24,017
1038	-24,209
1038,2	-24,545
1038,4	-24,405
1038,6	-24,258
1038,8	-22,546
1039	-21,659
1039,2	-22,414
1039,4	-23,447
1039,5	-22,636
1039,7	-21,524
1039,9	-19,793
1040,1	-20,901
1040,3	-22,414
1040,5	-21,373
1040,7	-22,425
1040,9	-23,213
1041,1	-24,507
1041,3	-24,481
1041,5	-25,612
1041,7	-25,058
1041,9	-25,442
1042,1	-25,936
1042,3	-25,401
1042,5	-25,078
1042,7	-25,165
1042,9	-24,193
1043,1	-25,024
1043,3	-24,444
1043,5	-23,43
1043,7	-23,403
1043,8	-24,537
1044	-24,09
1044,2	-23,511
1044,4	-22,15
1044,6	-21,839
1044,8	-22,87
1045	-24,593
1045,2	-23,2
