Data from mesure_FLMT021711__2__24.txt Node

Date: Mon Nov 04 11:50:50 CET 2024
User: jordan.swietlicki
Spectrometer: FLMT02171
Trigger mode: 0
Integration Time (sec): 1,000000E-1
Scans to average: 15
Electric dark correction enabled: true
Nonlinearity correction enabled: false
Boxcar width: 15
XAxis mode: Wavelengths
Number of Pixels in Spectrum: 3648
>>>>>Begin Spectral Data<<<<<
194,7	-40,341
194,9	-37,95
195,2	-33,194
195,5	-32,36
195,7	-29,435
196	-28,364
196,2	-26,753
196,5	-28,835
196,8	-27,782
197	-27,126
197,3	-26,579
197,6	-24,276
197,8	-24,016
198,1	-22,488
198,4	-21,093
198,6	-20,324
198,9	-16,168
199,2	-12,016
199,4	-7,452
199,7	-1,116
200	-1,701
200,2	-3,511
200,5	-3,454
200,7	-3,764
201	-3,835
201,3	-3,53
201,5	-1,399
201,8	-2,108
202,1	-1,067
202,3	-1,87
202,6	-1,968
202,9	-3,119
203,1	-3,168
203,4	-4,393
203,7	-5,004
203,9	-5,744
204,2	-5,057
204,5	-5,14
204,7	-2,806
205	-1,946
205,2	-0,648
205,5	-0,173
205,8	-0,422
206	3,395
206,3	3,7
206,6	4,292
206,8	5,02
207,1	5,163
207,4	5,748
207,6	8,166
207,9	8,856
208,2	10,213
208,4	11,541
208,7	10,964
208,9	12,654
209,2	12,853
209,5	12,329
209,7	11,564
210	11,816
210,3	11,862
210,5	13,985
210,8	14,973
211,1	15,524
211,3	15,844
211,6	14,124
211,9	14,645
212,1	15,245
212,4	14,622
212,6	15,614
212,9	15,437
213,2	13,483
213,4	13,694
213,7	14,362
214	14,962
214,2	11,111
214,5	10,689
214,8	10,87
215	10,836
215,3	12,812
215,5	13,789
215,8	11,624
216,1	11,032
216,3	11,801
216,6	10,855
216,9	10,96
217,1	11,662
217,4	11,262
217,7	11,714
217,9	9,648
218,2	9,863
218,5	9,052
218,7	7,656
219	7,577
219,2	9,512
219,5	10,387
219,8	12,261
220	12,046
220,3	13,249
220,6	13,736
220,8	12,197
221,1	12,386
221,4	12,857
221,6	12,808
221,9	13,099
222,1	11,662
222,4	11,929
222,7	13,849
222,9	10,741
223,2	8,822
223,5	6,921
223,7	8,007
224	7,792
224,2	7,856
224,5	7,162
224,8	7,69
225	7,653
225,3	6,416
225,6	6,921
225,8	8,067
226,1	10,161
226,4	9,022
226,6	7,871
226,9	9,354
227,1	9,512
227,4	8,497
227,7	7,475
227,9	6,291
228,2	6,978
228,5	4,405
228,7	3,346
229	3,625
229,3	4,534
229,5	6,872
229,8	6,216
230	6,664
230,3	6,189
230,6	7,634
230,8	5,782
231,1	7,736
231,4	8,414
231,6	12,027
231,9	10,538
232,1	11,473
232,4	9,998
232,7	10,685
232,9	10,67
233,2	10,187
233,5	9,87
233,7	10,217
234	9,203
234,2	7,57
234,5	9,074
234,8	11,488
235	10,79
235,3	10,915
235,6	10,968
235,8	11,262
236,1	13,208
236,4	12,291
236,6	14,577
236,9	15,769
237,1	16,746
237,4	16,463
237,7	13,374
237,9	12,544
238,2	9,908
238,5	11,654
238,7	10,402
239	9,946
239,2	9,071
239,5	10,994
239,8	8,267
240	7,615
240,3	9,24
240,6	9,915
240,8	9,327
241,1	10,036
241,3	10,044
241,6	9,082
241,9	7,547
242,1	7,679
242,4	9,708
242,7	8,116
242,9	8,554
243,2	7,374
243,4	7,528
243,7	6,853
244	5,571
244,2	4,952
244,5	5,993
244,8	5,933
245	6,306
245,3	7,37
245,5	7,174
245,8	7,819
246,1	7,49
246,3	8,086
246,6	7,63
246,9	9,414
247,1	10,821
247,4	12,371
247,6	12,706
247,9	11,978
248,2	12,005
248,4	8,954
248,7	8,384
248,9	8,878
249,2	7,856
249,5	8,343
249,7	8,875
250	8,358
250,3	8,965
250,5	6,974
250,8	9,934
251	7,588
251,3	8,991
251,6	10,017
251,8	9,961
252,1	9,908
252,4	7,653
252,6	7,607
252,9	6,525
253,1	5,28
253,4	2,324
253,7	2,957
253,9	5,092
254,2	5,65
254,4	5,28
254,7	4,722
255	3,983
255,2	4,375
255,5	3,38
255,8	2,852
256	3,161
256,3	4,454
256,5	4,937
256,8	5,031
257,1	4,368
257,3	3,896
257,6	4,873
257,8	5,944
258,1	7,091
258,4	7,524
258,6	8,396
258,9	7,671
259,2	7,166
259,4	6,174
259,7	3,338
259,9	2,312
260,2	4,824
260,5	6,951
260,7	6,197
261	5,586
261,2	5,427
261,5	6,37
261,8	4,824
262	5,62
262,3	6,17
262,6	6,898
262,8	6,902
263,1	6,355
263,3	4,703
263,6	5,465
263,9	3,915
264,1	4,081
264,4	5,261
264,6	6,189
264,9	5,763
265,2	6,284
265,4	6,065
265,7	5,929
266	4,869
266,2	5,646
266,5	4,718
266,7	2,576
267	0,494
267,3	2,169
267,5	4,379
267,8	6,646
268	7,792
268,3	5,593
268,6	3,602
268,8	5,371
269,1	4,319
269,3	3,372
269,6	2,889
269,9	3,093
270,1	0,298
270,4	1,094
270,6	1,218
270,9	0,528
271,2	0,219
271,4	-1,218
271,7	-3,296
272	-3,552
272,2	-2,308
272,5	-4,401
272,7	-3,549
273	-2,493
273,3	-1,972
273,5	-0,264
273,8	-1,916
274	-0,63
274,3	-2,195
274,6	-2,485
274,8	0,992
275,1	1,78
275,3	2,199
275,6	1,169
275,9	-0,407
276,1	-0,102
276,4	0,257
276,6	1,449
276,9	0,872
277,2	3,346
277,4	3,708
277,7	5,925
277,9	6,465
278,2	6,593
278,5	7,174
278,7	7,392
279	7,351
279,2	6,796
279,5	7,92
279,8	9,169
280	9,538
280,3	8,011
280,5	7,645
280,8	7,072
281,1	6,71
281,3	7,332
281,6	5,525
281,9	7,162
282,1	5,895
282,4	6,136
282,6	7,245
282,9	5,929
283,2	5,062
283,4	3,323
283,7	2,814
283,9	2,867
284,2	3,772
284,5	2,674
284,7	1,75
285	0,464
285,2	-1,557
285,5	0,14
285,8	-0,679
286	2,501
286,3	3,941
286,5	1,415
286,8	2,105
287,1	3,07
287,3	3,489
287,6	2,667
287,8	2,98
288,1	1,943
288,4	1,792
288,6	3,704
288,9	3,266
289,1	2,953
289,4	0,962
289,7	2,629
289,9	1,313
290,2	3,628
290,4	5,186
290,7	4,006
290,9	2,765
291,2	4,179
291,5	7,106
291,7	8,173
292	9,576
292,2	8,35
292,5	10,311
292,8	11,684
293	11,235
293,3	12,589
293,5	13,83
293,8	12,955
294,1	10,851
294,3	9,493
294,6	10,726
294,8	10,564
295,1	10,598
295,4	10,5
295,6	11,126
295,9	11,134
296,1	11,439
296,4	11,824
296,7	9,007
296,9	8,78
297,2	7,223
297,4	8,362
297,7	7,083
298	8,656
298,2	7,136
298,5	6,676
298,7	8,124
299	10,255
299,3	9,233
299,5	6,808
299,8	7,038
300	6,551
300,3	6,563
300,5	6,159
300,8	4,956
301,1	7,479
301,3	8,305
301,6	6,506
301,8	4,42
302,1	3,538
302,4	4,092
302,6	4,315
302,9	4,183
303,1	3,229
303,4	4,047
303,7	4,809
303,9	3,742
304,2	3,64
304,4	3,229
304,7	5,341
304,9	4,726
305,2	7,77
305,5	7,966
305,7	7,687
306	7,091
306,2	8,026
306,5	8,939
306,8	7,837
307	5,001
307,3	5,944
307,5	5,801
307,8	3,715
308,1	2,674
308,3	3,459
308,6	2,15
308,8	2,625
309,1	2,467
309,3	3,067
309,6	2,448
309,9	5,443
310,1	4,586
310,4	4,794
310,6	4,673
310,9	3,625
311,2	4,032
311,4	3,9
311,7	4,447
311,9	4,937
312,2	6,355
312,5	6,061
312,7	5,88
313	5,593
313,2	4,945
313,5	4,586
313,7	4,315
314	3,87
314,3	2,633
314,5	2,799
314,8	4,126
315	5,967
315,3	4,617
315,6	3,749
315,8	3,885
316,1	4,515
316,3	3,745
316,6	5,205
316,8	5,201
317,1	4,33
317,4	1,317
317,6	0,917
317,9	0,144
318,1	0,555
318,4	1,075
318,6	0,132
318,9	0,479
319,2	-0,128
319,4	-0,799
319,7	-1,923
319,9	-1,58
320,2	-1,655
320,5	-0,524
320,7	-0,486
321	-0,381
321,2	-1,444
321,5	-0,72
321,7	-0,241
322	0,604
322,3	0,178
322,5	-0,66
322,8	-2,881
323	-4,111
323,3	-2,146
323,5	-0,924
323,8	0,155
324,1	0,57
324,3	1,26
324,6	0,08
324,8	0,498
325,1	-0,784
325,4	0,8
325,6	2,655
325,9	2,09
326,1	3,515
326,4	2,818
326,6	2,486
326,9	2,84
327,2	3,436
327,4	3,998
327,7	4,3
327,9	5,209
328,2	5,16
328,4	4,862
328,7	7,143
329	7,291
329,2	7,551
329,5	6,321
329,7	6,838
330	7,347
330,2	8,558
330,5	9,768
330,8	10,383
331	12,144
331,3	10,632
331,5	10,579
331,8	9,063
332	8,177
332,3	6,54
332,6	7,287
332,8	6,846
333,1	8,509
333,3	9,369
333,6	8,52
333,8	9,418
334,1	8,901
334,4	8,222
334,6	7,566
334,9	7,023
335,1	6,363
335,4	5,45
335,6	6,182
335,9	4,458
336,2	3,191
336,4	3,568
336,7	1,185
336,9	2,708
337,2	2,818
337,4	3,138
337,7	2,459
338	-0,128
338,2	0,03
338,5	-2,149
338,7	-1,761
339	-1,934
339,2	-0,554
339,5	-2,142
339,8	-0,961
340	0,317
340,3	0,905
340,5	0,992
340,8	3,478
341	3,319
341,3	0,966
341,6	1,35
341,8	1,109
342,1	-1,003
342,3	-0,592
342,6	1,686
342,8	2,459
343,1	3,338
343,4	3,647
343,6	2,572
343,9	4,032
344,1	5,141
344,4	4,172
344,6	3,002
344,9	1,532
345,1	1,102
345,4	1,452
345,7	1,449
345,9	2,953
346,2	2,418
346,4	1,845
346,7	0,54
346,9	0,74
347,2	-0,735
347,5	1,339
347,7	0,789
348	-1,086
348,2	-0,286
348,5	-0,682
348,7	0,773
349	0,381
349,2	2,44
349,5	2,523
349,8	2,561
350	3,044
350,3	2,95
350,5	2,339
350,8	1,86
351	1,086
351,3	1,151
351,6	0,702
351,8	-0,411
352,1	-0,422
352,3	-0,026
352,6	0,453
352,8	0,819
353,1	1,482
353,3	0,868
353,6	0,868
353,9	-0,143
354,1	-0,66
354,4	0,898
354,6	3,176
354,9	2,018
355,1	3,708
355,4	2,576
355,6	3,776
355,9	4,752
356,2	5,167
356,4	5,827
356,7	2,199
356,9	2,746
357,2	2,867
357,4	2,467
357,7	2,188
358	5,544
358,2	5,831
358,5	5,997
358,7	5,503
359	6,483
359,2	7,951
359,5	8,162
359,7	9,844
360	9,222
360,3	10,941
360,5	11,13
360,8	10,96
361	12,348
361,3	11,779
361,5	12,295
361,8	13,268
362	14,713
362,3	14,83
362,6	15,248
362,8	17,522
363,1	18,028
363,3	19,487
363,6	19,231
363,8	20,807
364,1	18,786
364,3	19,597
364,6	20,872
364,8	21,63
365,1	20,909
365,4	24,371
365,6	24,937
365,9	23,874
366,1	25,322
366,4	25,073
366,6	26,702
366,9	27,89
367,1	27,483
367,4	30,093
367,7	30,734
367,9	31,933
368,2	31,545
368,4	30,723
368,7	31,337
368,9	32,19
369,2	31,575
369,4	31,945
369,7	33,585
370	32,654
370,2	32,646
370,5	31,994
370,7	31,036
371	30,892
371,2	30,677
371,5	32,273
371,7	32,197
372	33,276
372,2	33,457
372,5	34,049
372,8	33,664
373	32,292
373,3	28,773
373,5	30,462
373,8	29,041
374	28,316
374,3	29,882
374,5	30,262
374,8	30,968
375	31,024
375,3	30,266
375,6	28,909
375,8	29,58
376,1	30,206
376,3	32,895
376,6	33,001
376,8	30,625
377,1	34,264
377,3	33,562
377,6	32,412
377,8	33,668
378,1	35,739
378,4	36,621
378,6	36,5
378,9	35,188
379,1	37,013
379,4	35,886
379,6	34,63
379,9	33,691
380,1	33,17
380,4	32,827
380,6	33,71
380,9	35,294
381,2	36,972
381,4	36,953
381,7	38,888
381,9	39,337
382,2	39,608
382,4	39,389
382,7	38,198
382,9	39,02
383,2	39,733
383,4	40,268
383,7	42,497
383,9	41,52
384,2	40,77
384,5	41,897
384,7	43,519
385	42,301
385,2	44,319
385,5	44,722
385,7	45,631
386	45,918
386,2	46,51
386,5	46,457
386,7	48,931
387	48,792
387,2	51,141
387,5	54,581
387,8	57,979
388	60,321
388,3	62,082
388,5	63,621
388,8	65,035
389	66,144
389,3	65,605
389,5	65,318
389,8	67,404
390	66,408
390,3	67,46
390,5	67,875
390,8	70,523
391,1	71,492
391,3	73,438
391,6	73,185
391,8	75,569
392,1	76,719
392,3	79,299
392,6	80,438
392,8	82,486
393,1	86,536
393,3	89,674
393,6	90,738
393,8	92,167
394,1	95,324
394,4	99,367
394,6	102,177
394,9	104,277
395,1	106,333
395,4	106,819
395,6	110,097
395,9	111,941
396,1	114,547
396,4	117,134
396,6	121,509
396,9	123,772
397,1	127,789
397,4	132,816
397,6	135,52
397,9	140,012
398,2	145,096
398,4	151,19
398,7	154,094
398,9	156,81
399,2	161,407
399,4	165,99
399,7	169,056
399,9	172,473
400,2	174,841
400,4	179,261
400,7	182,916
400,9	184,998
401,2	188,845
401,4	192,646
401,7	195,377
401,9	198,194
402,2	198,65
402,5	199,884
402,7	200,378
403	202,961
403,2	206,676
403,5	208,607
403,7	210,308
404	212,989
404,2	214,811
404,5	217,821
404,7	222,418
405	226,465
405,2	228,716
405,5	231,466
405,7	235,98
406	236,995
406,2	238,673
406,5	241,147
406,7	241,871
407	242,659
407,3	243,806
407,5	245,658
407,8	248,279
408	249,331
408,3	250,802
408,5	253,729
408,8	253,555
409	255,754
409,3	258,062
409,5	261,592
409,8	262,207
410	266,669
410,3	269,052
410,5	275,267
410,8	274,63
411	276,086
411,3	278,801
411,5	281,102
411,8	281,977
412	283,331
412,3	284,315
412,6	284,911
412,8	284,376
413,1	283,587
413,3	285,111
413,6	284,225
413,8	285,616
414,1	285,258
414,3	285,541
414,6	288,207
414,8	287,181
415,1	286,963
415,3	287,77
415,6	289,305
415,8	289,501
416,1	290,138
416,3	288,283
416,6	290,357
416,8	289,467
417,1	291,786
417,3	289,229
417,6	291,172
417,8	291,553
418,1	292,186
418,4	290,893
418,6	293,435
418,9	293,766
419,1	293,717
419,4	293,793
419,6	293,766
419,9	294,068
420,1	292,643
420,4	292,548
420,6	292,514
420,9	292,05
421,1	290,9
421,4	291,964
421,6	291,304
421,9	292,258
422,1	290,817
422,4	291,085
422,6	293,216
422,9	292,099
423,1	293,023
423,4	293,355
423,6	294,6
423,9	295,686
424,1	297,078
424,4	296,09
424,6	295,109
424,9	292,718
425,1	293,008
425,4	290,138
425,6	290,772
425,9	288,509
426,2	287,344
426,4	285,115
426,7	283,606
426,9	280,374
427,2	277,606
427,4	276,723
427,7	275,539
427,9	273,94
428,2	273,186
428,4	274,528
428,7	275,652
428,9	276,591
429,2	277,097
429,4	278,239
429,7	277,625
429,9	276,418
430,2	275,769
430,4	275,901
430,7	278,967
430,9	278,579
431,2	278,081
431,4	278,801
431,7	279,661
431,9	279,801
432,2	282,66
432,4	284,734
432,7	286,307
432,9	289,686
433,2	293,634
433,4	292,903
433,7	297,18
433,9	299,503
434,2	301,381
434,4	303,353
434,7	306,853
434,9	310,749
435,2	311,526
435,4	312,793
435,7	315,701
435,9	316,554
436,2	317,41
436,4	317,964
436,7	318,073
436,9	318,104
437,2	317,67
437,4	320,608
437,7	324,753
437,9	328,373
438,2	329,678
438,4	330,923
438,7	332,186
438,9	333,48
439,2	333,306
439,4	331,756
439,7	333,755
439,9	333,389
440,2	333,148
440,5	335,068
440,7	334,936
441	335,215
441,2	337,802
441,5	337,349
441,7	337,994
442	340,023
442,2	341,332
442,5	341,351
442,7	342,859
443	345,13
443,2	347,351
443,5	347,725
443,7	349,493
444	348,871
444,2	351,266
444,5	353,676
444,7	356,037
445	357,387
445,2	356,953
445,5	356,716
445,7	356,908
446	357,395
446,2	357,342
446,5	360,05
446,7	361,585
447	363,829
447,2	366,488
447,5	368,826
447,7	368,437
448	369,69
448,2	370,844
448,5	371,443
448,7	372,884
449	372,707
449,2	373,058
449,5	373,653
449,7	373,374
450	374,091
450,2	376,252
450,5	376,18
450,7	378,639
451	378,515
451,2	380,201
451,5	380,321
451,7	383,855
452	385,564
452,2	386,484
452,5	386,261
452,7	389,048
452,9	390,01
453,2	391,375
453,4	393,107
453,7	395,09
453,9	396,169
454,2	394,932
454,4	394,981
454,7	397,583
454,9	398,179
455,2	397,255
455,4	398,986
455,7	402,105
455,9	400,336
456,2	401,755
456,4	402,154
456,7	403,912
456,9	405,164
457,2	405,677
457,4	409,343
457,7	412,586
457,9	414,359
458,2	416,554
458,4	417,583
458,7	420,37
458,9	421,321
459,2	423,452
459,4	425,571
459,7	426,986
459,9	427,193
460,2	428,686
460,4	427,879
460,7	431,304
460,9	432,613
461,2	432,33
461,4	431,9
461,7	434,197
461,9	436,214
462,2	436,52
462,4	435,388
462,7	437,184
462,9	437,666
463,2	438,043
463,4	436,58
463,7	438,813
463,9	439,397
464,2	439,296
464,4	438,79
464,7	440,691
464,9	440,959
465,2	441,325
465,4	440,706
465,7	442,041
465,9	443,742
466,2	443,972
466,4	444,429
466,6	445,39
466,9	444,349
467,1	442,003
467,4	442,449
467,6	444,119
467,9	444,312
468,1	445,296
468,4	443,919
468,6	443,965
468,9	443,851
469,1	445,707
469,4	446,035
469,6	446,869
469,9	448,241
470,1	450,169
470,4	450,018
470,6	452,737
470,9	455,302
471,1	458,194
471,4	458,247
471,6	459,292
471,9	462,584
472,1	464,787
472,4	466,013
472,6	469,184
472,9	468,63
473,1	470,874
473,4	471,579
473,6	472,767
473,9	473,061
474,1	473,895
474,3	475,468
474,6	479,431
474,8	480,695
475,1	481,928
475,3	482,554
475,6	484,991
475,8	487,31
476,1	490,414
476,3	492,334
476,6	495,083
476,8	497,304
477,1	501,185
477,3	503,863
477,6	507,423
477,8	509,633
478,1	512,779
478,3	516,403
478,6	521,276
478,8	522,347
479,1	525,138
479,3	526,899
479,6	529,494
479,8	531,357
480,1	534,815
480,3	537,131
480,5	541,106
480,8	541,879
481	545,119
481,3	546,378
481,5	549,279
481,8	550,165
482	552,797
482,3	551,877
482,5	551,741
482,8	551,708
483	553,408
483,3	553,352
483,5	555,886
483,8	556,169
484	556,81
484,3	556,599
484,5	558,579
484,8	559,601
485	560,499
485,2	560,423
485,5	563,41
485,7	564,036
486	564,18
486,2	563,569
486,5	566,922
486,7	569,019
487	572,556
487,2	572,76
487,5	574,992
487,7	576,693
488	576,403
488,2	576,746
488,5	577,995
488,7	577,448
489	578,342
489,2	579,669
489,5	582,743
489,7	584,531
489,9	586,582
490,2	589,784
490,4	593,752
490,7	596,72
490,9	599,514
491,2	600,359
491,4	603,806
491,7	608,491
491,9	611,315
492,2	612,326
492,4	612,658
492,7	614,766
492,9	618,13
493,2	618,979
493,4	620,635
493,6	620,239
493,9	621,657
494,1	620,284
494,4	621,023
494,6	620,19
494,9	619,3
495,1	619,515
495,4	619,228
495,6	621,694
495,9	623,927
496,1	625,1
496,4	626,578
496,6	629,452
496,9	632,835
497,1	633,02
497,3	633,182
497,6	634,231
497,8	636,071
498,1	634,321
498,3	633,152
498,6	631,24
498,8	630,486
499,1	629,154
499,3	628,313
499,6	630,09
499,8	629,92
500,1	627,593
500,3	626,311
500,6	624,572
500,8	623,06
501	623,874
501,3	622,754
501,5	620,412
501,8	621,31
502	622,675
502,3	621,936
502,5	622
502,8	622,66
503	624,119
503,3	622,509
503,5	619,948
503,8	620,748
504	619,447
504,2	619,024
504,5	617,037
504,7	617,723
505	617,237
505,2	619,032
505,5	620,752
505,7	622,528
506	622,98
506,2	625,847
506,5	626,103
506,7	625,832
506,9	625,915
507,2	626,043
507,4	624,787
507,7	628,426
507,9	629,479
508,2	631,896
508,4	631,342
508,7	631,1
508,9	632,481
509,2	634,642
509,4	635,064
509,7	634,367
509,9	635,751
510,1	635,106
510,4	633,789
510,6	630,874
510,9	631,244
511,1	632,232
511,4	631,696
511,6	632,126
511,9	630,35
512,1	628,954
512,4	628,525
512,6	628,042
512,8	624,35
513,1	620,378
513,3	618,255
513,6	615,894
513,8	613,525
514,1	610,912
514,3	608,396
514,6	606,737
514,8	603,011
515,1	602,17
515,3	598,142
515,5	596,267
515,8	593,363
516	593,68
516,3	591,934
516,5	590,572
516,8	589,135
517	587,514
517,3	586,356
517,5	585,594
517,7	586,228
518	585,643
518,2	585,669
518,5	585,779
518,7	584,9
519	584,112
519,2	583,293
519,5	583,278
519,7	582,211
520	581,97
520,2	582,434
520,4	585,964
520,7	589,162
520,9	590,636
521,2	592,511
521,4	593,642
521,7	597,565
521,9	599,447
522,2	598,9
522,4	602,268
522,6	603,784
522,9	605,085
523,1	605,349
523,4	606,94
523,6	605,036
523,9	605,59
524,1	604,927
524,4	603,916
524,6	603,75
524,8	603,316
525,1	602,947
525,3	603,788
525,6	605,488
525,8	607,378
526,1	607,853
526,3	609,294
526,6	609,079
526,8	608,943
527	611,021
527,3	612,424
527,5	612,413
527,8	612,319
528	610,882
528,3	612,021
528,5	612,258
528,8	610,772
529	609,98
529,2	610,867
529,5	609,841
529,7	611,542
530	610,98
530,2	611,625
530,5	610,29
530,7	610,821
531	609,222
531,2	611,097
531,4	610,738
531,7	613,261
531,9	613,857
532,2	615,268
532,4	615,868
532,7	616,467
532,9	615,573
533,2	614,155
533,4	612,794
533,6	611,304
533,9	609,222
534,1	608,63
534,4	608,525
534,6	608,721
534,9	606,707
535,1	605,451
535,3	604,712
535,6	604,285
535,8	601,272
536,1	601
536,3	601,781
536,6	602,63
536,8	600,08
537,1	600,521
537,3	598,443
537,5	597,414
537,8	595,581
538	596,165
538,3	593,846
538,5	593,744
538,8	592,854
539	591,451
539,2	589,973
539,5	588,766
539,7	588,34
540	587,148
540,2	587,468
540,5	586,59
540,7	586,854
540,9	585,643
541,2	585,93
541,4	589,316
541,7	591,73
541,9	592,454
542,2	588,675
542,4	589,196
542,7	589,452
542,9	589,283
543,1	588,494
543,4	590,388
543,6	590,003
543,9	589,758
544,1	588,26
544,4	588,038
544,6	586,91
544,8	587,627
545,1	586,65
545,3	586,62
545,6	586,39
545,8	587,544
546,1	586,239
546,3	586,511
546,5	587,623
546,8	589,071
547	589,166
547,3	587,574
547,5	586,737
547,8	585,145
548	585,311
548,2	584,267
548,5	582,475
548,7	581,676
549	577,108
549,2	576,369
549,5	574,314
549,7	574,136
549,9	572,583
550,2	571,447
550,4	570,082
550,7	569,761
550,9	565,768
551,2	565,553
551,4	564,836
551,6	564,598
551,9	564,745
552,1	564,089
552,4	562,848
552,6	561,736
552,9	561,713
553,1	560,284
553,3	558,805
553,6	558,809
553,8	556,339
554,1	556,46
554,3	552,394
554,5	550,957
554,8	548,434
555	546,759
555,3	543,953
555,5	543,094
555,8	539,854
556	539,118
556,2	535,407
556,5	534,634
556,7	530,655
557	530,482
557,2	528,34
557,5	528,098
557,7	528,242
557,9	526,031
558,2	524,002
558,4	525,141
558,7	521,577
558,9	521,038
559,2	519,522
559,4	517,086
559,6	516,75
559,9	516,546
560,1	514,136
560,4	514,016
560,6	513,265
560,8	512,56
561,1	510,376
561,3	511,398
561,6	508,313
561,8	508,223
562,1	506,133
562,3	506,118
562,5	505,737
562,8	506,857
563	504,821
563,3	506,503
563,5	506,201
563,7	507,536
564	505,677
564,2	505,658
564,5	504,361
564,7	505,73
565	506,031
565,2	503,067
565,4	503,742
565,7	505,805
565,9	503,591
566,2	503,787
566,4	501,377
566,6	502,984
566,9	503,516
567,1	503,022
567,4	500,914
567,6	501,562
567,9	499,454
568,1	499,375
568,3	499,232
568,6	499,612
568,8	498,937
569,1	496,969
569,3	495,215
569,5	496,011
569,8	496,742
570	497,021
570,3	497,561
570,5	497,81
570,7	496,527
571	497,527
571,2	497,274
571,5	497,218
571,7	494,389
572	494,061
572,2	491,968
572,4	491,485
572,7	491,617
572,9	491,07
573,2	488,045
573,4	486,492
573,6	485,232
573,9	484,598
574,1	481,634
574,4	477,855
574,6	477,44
574,8	475,856
575,1	474,943
575,3	473,258
575,6	471,115
575,8	468,988
576	466,461
576,3	463,482
576,5	466,405
576,8	466,891
577	466,254
577,3	464,715
577,5	462,181
577,7	459,744
578	458,711
578,2	456,938
578,5	454,065
578,7	453,578
578,9	454,17
579,2	453,846
579,4	452,518
579,7	451,47
579,9	448,226
580,1	447,366
580,4	445,986
580,6	445,756
580,9	446,163
581,1	445,703
581,3	445,511
581,6	442,29
581,8	443,297
582,1	441,392
582,3	441,796
582,5	442,35
582,8	442,415
583	443,369
583,3	444,123
583,5	442,856
583,7	442,878
584	439,752
584,2	438,67
584,5	436,708
584,7	435,287
584,9	433,782
585,2	431,496
585,4	428,954
585,7	426,586
585,9	422,976
586,1	419,552
586,4	416,082
586,6	415,019
586,9	411,67
587,1	408,822
587,3	407,208
587,6	405,334
587,8	402,256
588,1	399,624
588,3	396,282
588,5	394,574
588,8	391,266
589	390,847
589,3	387,955
589,5	385,937
589,7	386,133
590	382,158
590,2	380,069
590,5	376,554
590,7	372,982
590,9	373,272
591,2	370,697
591,4	368,109
591,7	368,124
591,9	368,656
592,1	367,902
592,4	368,094
592,6	366,94
592,9	366,944
593,1	368,6
593,3	369,384
593,6	370,285
593,8	370,546
594,1	371,749
594,3	373,239
594,5	374,136
594,8	374,906
595	376,29
595,3	377,794
595,5	380,204
595,7	382,694
596	383,814
596,2	385,681
596,4	390,15
596,7	391,745
596,9	393,454
597,2	391,349
597,4	394,306
597,6	394,528
597,9	394,721
598,1	397,184
598,4	399,228
598,6	401,762
598,8	403,127
599,1	402,26
599,3	403,252
599,6	403,553
599,8	405,526
600	408,524
600,3	410,297
600,5	408,837
600,7	410,93
601	412,39
601,2	413,642
601,5	413,793
601,7	413,985
601,9	414,483
602,2	415,924
602,4	415,09
602,7	414,559
602,9	413,405
603,1	413,273
603,4	412,884
603,6	412,895
603,9	409,822
604,1	410,097
604,3	410,022
604,6	410,199
604,8	408,087
605	409,328
605,3	409,252
605,5	408,06
605,8	405,443
606	405,179
606,2	404,881
606,5	403,391
606,7	399,48
607	397,693
607,2	394,487
607,4	389,863
607,7	387,51
607,9	386,42
608,1	386,209
608,4	383,908
608,6	382,181
608,9	380,14
609,1	378,187
609,3	375,931
609,6	373,552
609,8	373,657
610,1	371,323
610,3	366,65
610,5	363,274
610,8	360,235
611	357,764
611,2	355,426
611,5	352,541
611,7	348,75
612	346,74
612,2	345,303
612,4	342,569
612,7	340,416
612,9	339,382
613,1	337,017
613,4	334,076
613,6	331,511
613,9	330,625
614,1	329,105
614,3	327,936
614,6	326,654
614,8	327,4
615	325,726
615,3	324,628
615,5	322,411
615,8	319,148
616	318,194
616,2	315,607
616,5	316,282
616,7	316,784
616,9	315,245
617,2	312,978
617,4	313,981
617,7	314,811
617,9	313,597
618,1	311,33
618,4	310,055
618,6	308,709
618,8	309,441
619,1	311,108
619,3	310,078
619,6	307,936
619,8	306,039
620	304,376
620,3	302,445
620,5	302,569
620,7	301,347
621	300,174
621,2	297,791
621,5	297,127
621,7	297,082
621,9	296,297
622,2	293,815
622,4	294,298
622,6	293,653
622,9	290,802
623,1	291,364
623,4	289,475
623,6	288,947
623,8	287,721
624,1	284,836
624,3	284,096
624,5	283,357
624,8	282,256
625	280,819
625,3	281,008
625,5	281,898
625,7	281,536
626	280,815
626,2	278,828
626,4	276,191
626,7	274,615
626,9	274,838
627,1	273,925
627,4	273,374
627,6	272,175
627,9	270,693
628,1	269,237
628,3	268,102
628,6	268,343
628,8	268,237
629	267,136
629,3	267,144
629,5	267,491
629,8	264,417
630	264,044
630,2	263,165
630,5	262,795
630,7	261,754
630,9	261,434
631,2	259,673
631,4	259,518
631,6	258,164
631,9	256,259
632,1	255,098
632,4	255,23
632,6	253,623
632,8	253,114
633,1	252,341
633,3	252,318
633,5	250,647
633,8	249,165
634	249,987
634,2	250,368
634,5	249,855
634,7	250,708
635	250,063
635,2	249,803
635,4	250,674
635,7	252,269
635,9	251,096
636,1	250,704
636,4	249,757
636,6	246,397
636,8	246,291
637,1	247,023
637,3	246,597
637,5	246,076
637,8	244,798
638	245,45
638,3	244,606
638,5	245,609
638,7	244,455
639	245,91
639,2	246,039
639,4	244,304
639,7	243,493
639,9	241,849
640,1	243,915
640,4	245,134
640,6	243,297
640,9	244,119
641,1	244,866
641,3	244,643
641,6	243,474
641,8	243,15
642	241,226
642,3	239,608
642,5	238,258
642,7	235,407
643	235,335
643,2	233,51
643,4	231,541
643,7	230,708
643,9	230,772
644,1	229,271
644,4	229,429
644,6	227,694
644,9	227,675
645,1	226,544
645,3	225,134
645,6	224,666
645,8	221,547
646	221,743
646,3	218,828
646,5	216,708
646,7	216,912
647	215,562
647,2	215,324
647,4	211,27
647,7	209,135
647,9	210,01
648,1	209,248
648,4	207,958
648,6	206,344
648,9	205,424
649,1	206,718
649,3	207,728
649,6	208,298
649,8	208,188
650	208,23
650,3	205,258
650,5	205,907
650,7	205,299
651	203,764
651,2	205,107
651,4	202,825
651,7	200,023
651,9	199,525
652,1	198,745
652,4	198,552
652,6	198,239
652,8	197,696
653,1	196,274
653,3	194,792
653,5	194,196
653,8	193,51
654	193,563
654,3	192,986
654,5	193,008
654,7	192,031
655	189,942
655,2	188,43
655,4	185,575
655,7	186,22
655,9	187,57
656,1	188,094
656,4	184,624
656,6	182,573
656,8	187,672
657,1	189,505
657,3	188,72
657,5	187,415
657,8	188,151
658	188,351
658,2	189,143
658,5	187,068
658,7	188,501
658,9	188,633
659,2	187,408
659,4	185,594
659,6	185,579
659,9	185,462
660,1	183,776
660,3	184,179
660,6	182,995
660,8	183,059
661	182,716
661,3	181,094
661,5	179,786
661,8	178,895
662	178,349
662,2	179,224
662,5	178,281
662,7	179,782
662,9	176,535
663,2	175,399
663,4	171,93
663,6	171,345
663,9	171,522
664,1	165,914
664,3	163,791
664,6	163,87
664,8	162,893
665	161,626
665,3	161,181
665,5	160,287
665,7	162,493
666	161,377
666,2	160,389
666,4	161,053
666,7	161,204
666,9	160,023
667,1	159,439
667,4	160,491
667,6	159,767
667,8	159,861
668,1	158,492
668,3	159,099
668,5	159,348
668,8	159,454
669	158,926
669,2	160,31
669,5	160,114
669,7	160,363
669,9	158,552
670,2	159,514
670,4	157,745
670,6	158,349
670,9	159,318
671,1	157,176
671,3	156,885
671,6	154,815
671,8	155,207
672	155,973
672,3	156,24
672,5	156,425
672,7	154,611
673	153,872
673,2	153,057
673,4	155,188
673,7	154,43
673,9	154,306
674,1	153,691
674,4	152,759
674,6	150,896
674,8	149,742
675,1	149,535
675,3	148,581
675,5	148,773
675,8	147,928
676	148,207
676,2	149,44
676,5	147,913
676,7	148,23
676,9	147,166
677,2	146,751
677,4	145,529
677,6	144,99
677,9	145,171
678,1	143,855
678,3	145,729
678,5	144,334
678,8	144,036
679	143,414
679,2	143,308
679,5	143,353
679,7	141,901
679,9	143,504
680,2	141,181
680,4	142,497
680,6	139,454
680,9	139,736
681,1	139,529
681,3	141,498
681,6	140,317
681,8	141,192
682	140,562
682,3	141,788
682,5	142,49
682,7	139,853
683	138,375
683,2	135,98
683,4	133,883
683,7	131,899
683,9	131,364
684,1	131,107
684,4	132,186
684,6	130,606
684,8	128,788
685,1	126,604
685,3	125,797
685,5	125,314
685,7	123,987
686	123,365
686,2	121,464
686,4	120,419
686,7	117,198
686,9	116,961
687,1	115,252
687,4	114,226
687,6	111,496
687,8	110,855
688,1	109,614
688,3	108,464
688,5	105,903
688,8	108,301
689	106,616
689,2	108,848
689,5	106,683
689,7	104,93
689,9	103,617
690,2	102,957
690,4	103,451
690,6	102,335
690,8	103,033
691,1	101,46
691,3	99,997
691,5	98,22
691,8	97,093
692	99,359
692,2	101,796
692,5	101,154
692,7	99,725
692,9	99,548
693,2	98,36
693,4	98,416
693,6	98,118
693,9	99,374
694,1	99,54
694,3	99,092
694,5	99,28
694,8	99,273
695	99,31
695,2	98,122
695,5	97,904
695,7	97,624
695,9	96,765
696,2	96,116
696,4	94,268
696,6	93,725
696,9	93,891
697,1	97,59
697,3	99,48
697,6	100,434
697,8	100,615
698	101,004
698,2	99,785
698,5	100,94
698,7	101,656
698,9	103,828
699,2	102,806
699,4	100,264
699,6	101,128
699,9	99,212
700,1	99,397
700,3	101,49
700,6	102,026
700,8	102,29
701	101,434
701,2	100,815
701,5	101,464
701,7	102,309
701,9	101,811
702,2	103,036
702,4	104,7
702,6	105,329
702,9	103,719
703,1	100,943
703,3	102,769
703,6	103,591
703,8	104,673
704	105,069
704,2	101,596
704,5	100,977
704,7	100,461
704,9	100,283
705,2	99,834
705,4	101,637
705,6	101,328
705,9	101,271
706,1	102,207
706,3	101,339
706,5	99,929
706,8	99,352
707	100,921
707,2	101,075
707,5	98,982
707,7	97,115
707,9	97,221
708,2	96,719
708,4	96,738
708,6	95,626
708,8	93,955
709,1	94,102
709,3	92,529
709,5	90,059
709,8	89,704
710	91,914
710,2	92,039
710,5	90,851
710,7	88,486
710,9	87,868
711,1	87,385
711,4	87,302
711,6	85,752
711,8	85,907
712,1	86,065
712,3	85,48
712,5	84,356
712,8	85,122
713	82,946
713,2	80,728
713,4	80,653
713,7	81,66
713,9	80,755
714,1	81,358
714,4	79,691
714,6	78,959
714,8	78,511
715,1	76,629
715,3	76,568
715,5	73,902
715,7	72,359
716	70,553
716,2	69,124
716,4	68,094
716,7	67,555
716,9	67,566
717,1	63,742
717,3	63,41
717,6	62,742
717,8	62,595
718	60,649
718,3	59,404
718,5	59,348
718,7	58,956
718,9	57,771
719,2	56,225
719,4	55,844
719,6	53,37
719,9	51,345
720,1	52,193
720,3	50,896
720,6	47,766
720,8	46,401
721	45,854
721,2	43,583
721,5	43,229
721,7	43,055
721,9	42,859
722,2	42,026
722,4	41,004
722,6	43,221
722,8	44,711
723,1	46,898
723,3	47,928
723,5	47,521
723,8	48,396
724	46,457
724,2	46,582
724,4	47,513
724,7	49,165
724,9	49,674
725,1	50,564
725,4	52,08
725,6	49,814
725,8	49,41
726	48,479
726,3	47,362
726,5	46,668
726,7	47,441
727	45,065
727,2	43,515
727,4	44,062
727,6	45,043
727,9	45,85
728,1	45,016
728,3	44,786
728,6	46,231
728,8	47,136
729	46,431
729,2	48,524
729,5	48,399
729,7	47,17
729,9	46,883
730,2	46,578
730,4	47,023
730,6	47,234
730,8	45,503
731,1	46,412
731,3	47,532
731,5	45,929
731,7	43,1
732	43,161
732,2	42,87
732,4	42,41
732,7	44,605
732,9	44,028
733,1	43,583
733,3	44,801
733,6	45,084
733,8	45,345
734	50,006
734,3	50,625
734,5	52,469
734,7	53,921
734,9	53,2
735,2	55,969
735,4	56,904
735,6	55,554
735,9	56,527
736,1	57,858
736,3	58,299
736,5	57,945
736,8	58,205
737	56,368
737,2	56,059
737,4	54,309
737,7	54,973
737,9	58,073
738,1	56,776
738,4	56,885
738,6	57,36
738,8	58,254
739	56,282
739,3	56,406
739,5	54,792
739,7	54,728
739,9	58,081
740,2	59,435
740,4	58,216
740,6	57,707
740,9	57,919
741,1	56,331
741,3	55,641
741,5	54,577
741,8	53,596
742	54,471
742,2	54,366
742,4	54,091
742,7	55,543
742,9	55,482
743,1	54,102
743,4	52,25
743,6	52,552
743,8	52,201
744	54,502
744,3	54,121
744,5	53,431
744,7	53,898
744,9	53,83
745,2	56,534
745,4	55,652
745,6	55,991
745,8	55,663
746,1	58,009
746,3	59,653
746,5	62,437
746,8	61,475
747	60,596
747,2	61,539
747,4	63,708
747,7	63,131
747,9	63,787
748,1	62,003
748,3	63,429
748,6	63,089
748,8	62,037
749	61,875
749,2	60,061
749,5	59,299
749,7	58,997
749,9	58,058
750,2	60,23
750,4	59,861
750,6	60,389
750,8	60,11
751,1	58,843
751,3	57,666
751,5	60,234
751,7	60,653
752	59,397
752,2	58,56
752,4	58,273
752,6	57,715
752,9	57,722
753,1	56,319
753,3	55,26
753,5	53,05
753,8	54,347
754	52,533
754,2	51,601
754,4	50,911
754,7	51,352
754,9	49,949
755,1	50,266
755,4	49,655
755,6	50,059
755,8	50,904
756	49,154
756,3	47,751
756,5	46,895
756,7	44,206
756,9	42,708
757,2	40,253
757,4	38,959
757,6	35,84
757,8	33,728
758,1	34,264
758,3	35,022
758,5	32,307
758,7	28,46
759	25,805
759,2	24,866
759,4	23,791
759,6	23,331
759,9	21,69
760,1	21,799
760,3	19,276
760,5	18,149
760,8	16,21
761	15,448
761,2	14,162
761,4	13,117
761,7	12,978
761,9	13,336
762,1	12,884
762,3	11,828
762,6	9,919
762,8	9,35
763	8,388
763,2	11,36
763,5	11,994
763,7	12,212
763,9	12,759
764,1	12,944
764,4	13,596
764,6	15,58
764,8	17,707
765	16,357
765,3	14,551
765,5	14,543
765,7	14,916
765,9	16,346
766,2	16,859
766,4	18,688
766,6	17,394
766,8	18,247
767,1	17,473
767,3	18,209
767,5	19,005
767,7	19,423
768	19,435
768,2	20,106
768,4	20,645
768,6	19,978
768,9	18,661
769,1	18,967
769,3	19,861
769,5	19,985
769,8	22,048
770	24,941
770,2	23,459
770,4	24,198
770,7	25,13
770,9	25,62
771,1	26,314
771,3	27,498
771,6	27,181
771,8	27,234
772	27
772,2	26,608
772,5	27,472
772,7	28,95
772,9	28,075
773,1	26,502
773,4	27,189
773,6	28,577
773,8	27,313
774	28,037
774,3	28,535
774,5	27,954
774,7	27,705
774,9	27,849
775,2	27,502
775,4	27,89
775,6	28,184
775,8	29,139
776	30,557
776,3	30,508
776,5	30,855
776,7	30,108
776,9	29,663
777,2	29,527
777,4	28,083
777,6	26,936
777,8	26,649
778,1	26,28
778,3	25,541
778,5	24,945
778,7	25,262
779	24,696
779,2	26,514
779,4	26,065
779,6	25,937
779,9	25,182
780,1	25,695
780,3	23,662
780,5	21,739
780,7	21,351
781	21,701
781,2	21,796
781,4	20,66
781,6	20,819
781,9	21,916
782,1	21,268
782,3	20,902
782,5	19,431
782,8	18,646
783	18,733
783,2	17,73
783,4	17,134
783,7	15,211
783,9	13,385
784,1	11,733
784,3	11,292
784,5	10,779
784,8	8,479
785	7,404
785,2	6,11
785,4	6,608
785,7	4,756
785,9	5,872
786,1	5,657
786,3	6,05
786,6	5,601
786,8	7,079
787	7,619
787,2	9,139
787,4	10,07
787,7	11,631
787,9	11,239
788,1	11,405
788,3	12,642
788,6	11,726
788,8	8,958
789	7,683
789,2	6,442
789,5	6,299
789,7	6,133
789,9	3,787
790,1	2,674
790,3	2,161
790,6	2,735
790,8	2,723
791	2,863
791,2	4,036
791,5	6,302
791,7	7,189
791,9	7,758
792,1	8,045
792,3	6,404
792,6	6,182
792,8	4,368
793	5,246
793,2	5,367
793,5	5,74
793,7	5,876
793,9	4,247
794,1	2,904
794,3	2,942
794,6	3,334
794,8	2,697
795	2,165
795,2	0,996
795,5	2,037
795,7	2,527
795,9	5,065
796,1	3,794
796,3	4,752
796,6	6,133
796,8	6,887
797	9,644
797,2	12,02
797,5	12,239
797,7	13,05
797,9	11,978
798,1	12,97
798,3	20,74
798,6	21,105
798,8	23,217
799	24,466
799,2	26,11
799,5	27,211
799,7	28,452
799,9	27,008
800,1	25,235
800,3	24,982
800,6	24,556
800,8	25,427
801	25,959
801,2	26,004
801,5	25,993
801,7	25,016
801,9	24,462
802,1	25,827
802,3	25,888
802,6	25,752
802,8	23,142
803	24,956
803,2	25,299
803,4	23,334
803,7	24,009
803,9	22,324
804,1	21,09
804,3	21,068
804,6	21,286
804,8	23,1
805	19,895
805,2	10,489
805,4	9,697
805,7	7,37
805,9	6,072
806,1	6,053
806,3	5,85
806,5	5,578
806,8	4,496
807	5,269
807,2	5,326
807,4	5,126
807,6	2,667
807,9	1,396
808,1	0,977
808,3	0,611
808,5	3,266
808,8	4,926
809	3,847
809,2	4,794
809,4	5,642
809,6	5,657
809,9	4,036
810,1	2,143
810,3	3,843
810,5	3,342
810,7	1,275
811	0,095
811,2	-0,037
811,4	-0,143
811,6	-0,89
811,8	1,324
812,1	1,675
812,3	2,55
812,5	2,184
812,7	2,275
812,9	2,418
813,2	3,319
813,4	1,943
813,6	3,199
813,8	2,855
814	1,909
814,3	1,92
814,5	4,809
814,7	4,172
814,9	3,217
815,2	3,221
815,4	2,026
815,6	0,887
815,8	0,057
816	-1,188
816,3	-0,976
816,5	-1,388
816,7	-0,882
816,9	-0,29
817,1	-1,158
817,4	-2,44
817,6	-0,588
817,8	-0,399
818	-1,478
818,2	-2,259
818,5	-2,972
818,7	-4,397
818,9	-5,898
819,1	-4,616
819,3	-3,737
819,6	-2,764
819,8	-1,308
820	-3,635
820,2	-3,53
820,4	-4,19
820,7	-3,862
820,9	-2,327
821,1	-2,025
821,3	-3,65
821,5	-1,772
821,8	-0,577
822	-1,772
822,2	-1,312
822,4	-2,165
822,6	-1,78
822,9	-1,569
823,1	-3,432
823,3	-3,096
823,5	-4,001
823,7	-1,765
823,9	-2,606
824,2	-2,896
824,4	-4,178
824,6	-3,635
824,8	-4,646
825	-4,186
825,3	-4,077
825,5	-4,152
825,7	-2,798
825,9	-5,057
826,1	-6,189
826,4	-6,849
826,6	-9,538
826,8	-9,839
827	-9,07
827,2	-8,885
827,5	-8,014
827,7	-8,233
827,9	-8,723
828,1	-6,947
828,3	-7,633
828,6	-7,132
828,8	-6,558
829	-8,772
829,2	-8,942
829,4	-6,743
829,6	-7,109
829,9	-6,528
830,1	-6,117
830,3	-5,4
830,5	-6,038
830,7	-5,465
831	-4,846
831,2	-4,31
831,4	-5,231
831,6	-4,137
831,8	-4,209
832,1	-3,59
832,3	-2,651
832,5	-1,716
832,7	-1,606
832,9	-1,508
833,1	-1,455
833,4	-0,448
833,6	1,056
833,8	2,222
834	2,267
834,2	2,135
834,5	1,441
834,7	-0,011
834,9	-1,323
835,1	-1,916
835,3	-2,99
835,5	-3,507
835,8	-2,202
836	-1,256
836,2	-3,353
836,4	-2,847
836,6	-3,236
836,9	-4,231
837,1	-4,009
837,3	-4,495
837,5	-5,382
837,7	-6,125
837,9	-6,653
838,2	-5,106
838,4	-5,547
838,6	-4,993
838,8	-5,042
839	-5,502
839,3	-5,476
839,5	-4,205
839,7	-3,771
839,9	-4,838
840,1	-5,744
840,3	-3,681
840,6	-4,914
840,8	-3,767
841	-4,986
841,2	-4,352
841,4	-3,469
841,7	-3,945
841,9	-4,046
842,1	-4,137
842,3	-3,221
842,5	-2,655
842,7	-2,259
843	-2,557
843,2	-3,703
843,4	-1,482
843,6	-1,297
843,8	-0,826
844	-1,188
844,3	-0,622
844,5	-0,837
844,7	-1,621
844,9	-1,912
845,1	-2,048
845,4	-3,677
845,6	-3,134
845,8	-1,105
846	-2,451
846,2	-3,831
846,4	-3,058
846,7	-2,413
846,9	-1,719
847,1	-3,609
847,3	-3,432
847,5	-4,59
847,7	-4,348
848	-5,902
848,2	-6,445
848,4	-5,585
848,6	-5,167
848,8	-5,6
849	-5,634
849,3	-6,502
849,5	-6,275
849,7	-6,656
849,9	-7,165
850,1	-9,76
850,3	-7,803
850,6	-8,15
850,8	-9,413
851	-10,997
851,2	-10,812
851,4	-10,201
851,6	-11,28
851,9	-11,084
852,1	-8,708
852,3	-11,171
852,5	-12,683
852,7	-12,687
852,9	-11,439
853,2	-11,816
853,4	-12,053
853,6	-12,283
853,8	-12,989
854	-14,229
854,2	-12,921
854,5	-12,363
854,7	-12,238
854,9	-11,144
855,1	-10,669
855,3	-10,243
855,5	-8,995
855,8	-9,745
856	-11,159
856,2	-13,087
856,4	-10,643
856,6	-9,575
856,8	-9,372
857,1	-7,09
857,3	-8,052
857,5	-7,399
857,7	-4,827
857,9	-4,122
858,1	-2,002
858,4	-2,99
858,6	-3,039
858,8	-4,593
859	-2,821
859,2	-4,62
859,4	-3,979
859,7	-4,178
859,9	-4,533
860,1	-5,016
860,3	-5,532
860,5	-5,687
860,7	-5,31
860,9	-6,856
861,2	-6,536
861,4	-6,475
861,6	-6,094
861,8	-6,038
862	-6,128
862,2	-5,921
862,5	-6,649
862,7	-5,615
862,9	-4,842
863,1	-5,717
863,3	-5,265
863,5	-4,948
863,8	-8,915
864	-6,879
864,2	-5,664
864,4	-6,935
864,6	-7,301
864,8	-8,78
865	-7,324
865,3	-6,143
865,5	-6,121
865,7	-5,672
865,9	-4,533
866,1	-6,434
866,3	-7,109
866,6	-6,415
866,8	-6,792
867	-6,717
867,2	-6,732
867,4	-6,619
867,6	-6,211
867,8	-6,886
868,1	-6,23
868,3	-6,604
868,5	-7,652
868,7	-8,995
868,9	-9,832
869,1	-7,988
869,3	-7,569
869,6	-8,655
869,8	-9,006
870	-9,79
870,2	-9,511
870,4	-9,885
870,6	-10,816
870,9	-11,925
871,1	-13,222
871,3	-13,781
871,5	-14,452
871,7	-12,841
871,9	-14,908
872,1	-15,889
872,4	-17,692
872,6	-18,299
872,8	-16,209
873	-16,025
873,2	-16,594
873,4	-14,369
873,6	-13,754
873,9	-13,803
874,1	-14,086
874,3	-14,795
874,5	-15,647
874,7	-16,873
874,9	-17,643
875,1	-18,095
875,4	-17,767
875,6	-18,242
875,8	-18,231
876	-17,081
876,2	-15,881
876,4	-16,775
876,6	-16,866
876,9	-16,805
877,1	-15,889
877,3	-16,851
877,5	-18,57
877,7	-16,062
877,9	-14,576
878,1	-15,406
878,4	-17,141
878,6	-16,402
878,8	-15,063
879	-14,878
879,2	-12,792
879,4	-14,565
879,6	-14,12
879,9	-14,633
880,1	-14,867
880,3	-15,742
880,5	-15,067
880,7	-13,551
880,9	-12,992
881,1	-11,205
881,3	-9,572
881,6	-9,255
881,8	-10,582
882	-9,802
882,2	-7,893
882,4	-8,172
882,6	-9,323
882,8	-9,655
883,1	-9,093
883,3	-9,13
883,5	-10,303
883,7	-8,452
883,9	-8,448
884,1	-6,928
884,3	-9,081
884,6	-10,745
884,8	-8,112
885	-8,738
885,2	-9,013
885,4	-9,722
885,6	-8,795
885,8	-9,817
886	-7,927
886,3	-8,719
886,5	-9,142
886,7	-10,024
886,9	-9,066
887,1	-9,474
887,3	-11,005
887,5	-10,303
887,8	-9,779
888	-11,661
888,2	-11,114
888,4	-9,658
888,6	-10,575
888,8	-12,061
889	-11,518
889,2	-11,895
889,5	-12,721
889,7	-12,28
889,9	-10,394
890,1	-10,288
890,3	-11,917
890,5	-11,405
890,7	-11,295
890,9	-11,182
891,2	-10,273
891,4	-11,959
891,6	-11,431
891,8	-10,284
892	-11,046
892,2	-11,325
892,4	-12,989
892,6	-13,739
892,9	-13,517
893,1	-12,502
893,3	-11,537
893,5	-11,759
893,7	-11,533
893,9	-10,714
894,1	-12,151
894,3	-13,317
894,6	-13,075
894,8	-13,652
895	-12,804
895,2	-12,178
895,4	-11,759
895,6	-14,211
895,8	-14,184
896	-12,653
896,3	-13,694
896,5	-15,327
896,7	-13,988
896,9	-14,463
897,1	-13,969
897,3	-14,018
897,5	-12,77
897,7	-12,943
898	-11,227
898,2	-12,638
898,4	-14,082
898,6	-13,468
898,8	-13,52
899	-11,865
899,2	-10,797
899,4	-9,764
899,6	-11,122
899,9	-12,125
900,1	-10,843
900,3	-10,401
900,5	-9,515
900,7	-8,976
900,9	-10,522
901,1	-9,142
901,3	-9,545
901,6	-9,704
901,8	-9,432
902	-11,167
902,2	-10,756
902,4	-11,348
902,6	-12,238
902,8	-12,589
903	-13,649
903,2	-14,735
903,5	-14,26
903,7	-15,391
903,9	-15,225
904,1	-15,361
904,3	-14,746
904,5	-16,123
904,7	-13,724
904,9	-12,43
905,1	-12,759
905,4	-11,397
905,6	-11,589
905,8	-12,513
906	-12,74
906,2	-11,601
906,4	-11,329
906,6	-12,525
906,8	-11,073
907	-11,718
907,3	-11,454
907,5	-12,087
907,7	-13,369
907,9	-12,019
908,1	-13,139
908,3	-14,237
908,5	-12,449
908,7	-12,042
908,9	-12,792
909,2	-13,385
909,4	-12,298
909,6	-11,687
909,8	-12,087
910	-12,649
910,2	-10,952
910,4	-11,608
910,6	-11,544
910,8	-13,336
911,1	-11,333
911,3	-9,64
911,5	-9,99
911,7	-9,21
911,9	-9,802
912,1	-9,481
912,3	-10,496
912,5	-9,809
912,7	-9,971
912,9	-9,5
913,2	-9,44
913,4	-11,616
913,6	-10,356
913,8	-9,832
914	-7,071
914,2	-7,09
914,4	-6,573
914,6	-6,917
914,8	-6,238
915,1	-5,634
915,3	-5,31
915,5	-3,36
915,7	-2,527
915,9	-2,104
916,1	-2,21
916,3	-1,893
916,5	-1,644
916,7	-1,712
916,9	0,596
917,2	-0,343
917,4	1,784
917,6	-0,079
917,8	-2,591
918	-4,107
918,2	-4,458
918,4	-6,272
918,6	-6,622
918,8	-6,4
919	-8,519
919,2	-6,781
919,5	-6,113
919,7	-7,497
919,9	-6,943
920,1	-8,32
920,3	-9,447
920,5	-9,545
920,7	-8,946
920,9	-10,33
921,1	-9,342
921,3	-10,149
921,6	-11,356
921,8	-11,465
922	-13,019
922,2	-14,935
922,4	-15,874
922,6	-16,145
922,8	-15,365
923	-16,485
923,2	-17,514
923,4	-19,86
923,6	-19,683
923,9	-20,332
924,1	-20,218
924,3	-21,391
924,5	-20,154
924,7	-20,177
924,9	-18,367
925,1	-18,883
925,3	-17,646
925,5	-16,967
925,7	-18,665
925,9	-19,807
926,2	-18,589
926,4	-18,827
926,6	-17,839
926,8	-17,771
927	-18,932
927,2	-17,937
927,4	-18,431
927,6	-19,683
927,8	-17,967
928	-18,574
928,2	-18,778
928,5	-18,306
928,7	-16,851
928,9	-14,708
929,1	-14,263
929,3	-13,147
929,5	-11,967
929,7	-12,099
929,9	-11,216
930,1	-12,099
930,3	-12,751
930,5	-11,714
930,8	-9,402
931	-9,519
931,2	-9,01
931,4	-9,112
931,6	-8,225
931,8	-8,527
932	-8,048
932,2	-9,293
932,4	-10,88
932,6	-11,876
932,8	-13,324
933	-16,168
933,3	-16,745
933,5	-16,36
933,7	-17,028
933,9	-16,711
934,1	-15,221
934,3	-15,625
934,5	-15,006
934,7	-15,387
934,9	-15,191
935,1	-15,527
935,3	-16,76
935,5	-17,552
935,7	-19,242
936	-18,842
936,2	-18,766
936,4	-18,778
936,6	-16,907
936,8	-17,303
937	-18,484
937,2	-20,396
937,4	-20,298
937,6	-21,516
937,8	-21,15
938	-23,443
938,2	-23,832
938,4	-22,734
938,7	-21,546
938,9	-20,943
939,1	-20,226
939,3	-17,827
939,5	-15,297
939,7	-14,984
939,9	-16,16
940,1	-16,394
940,3	-15,976
940,5	-16,092
940,7	-16,832
940,9	-15,764
941,1	-15,267
941,4	-15,813
941,6	-15,3
941,8	-16,104
942	-14,757
942,2	-14,267
942,4	-14,237
942,6	-12,14
942,8	-12,872
943	-13,249
943,2	-12,559
943,4	-12,51
943,6	-11,54
943,8	-11,703
944	-12,151
944,3	-12,585
944,5	-12,351
944,7	-10,326
944,9	-11,178
945,1	-10,707
945,3	-10,013
945,5	-8,889
945,7	-9,466
945,9	-10,775
946,1	-9,851
946,3	-10,013
946,5	-10,835
946,7	-11,401
946,9	-10,96
947,1	-10,232
947,4	-11,823
947,6	-12,6
947,8	-12,264
948	-12,261
948,2	-11,631
948,4	-12,694
948,6	-11,925
948,8	-12,114
949	-13,98
949,2	-12,962
949,4	-13,517
949,6	-13,701
949,8	-12,906
950	-13,388
950,2	-11,819
950,5	-10,224
950,7	-11,125
950,9	-9,798
951,1	-12,902
951,3	-11,344
951,5	-11,933
951,7	-13,701
951,9	-14,607
952,1	-14,739
952,3	-14,105
952,5	-15,089
952,7	-14,105
952,9	-13,09
953,1	-13,758
953,3	-14,712
953,5	-14,965
953,8	-14,067
954	-13,015
954,2	-14,026
954,4	-13,909
954,6	-15,15
954,8	-15,199
955	-15,553
955,2	-14,886
955,4	-15,58
955,6	-17,005
955,8	-15,821
956	-15,24
956,2	-15,135
956,4	-14,452
956,6	-16,047
956,8	-16,466
957	-16,432
957,2	-15,783
957,5	-15,727
957,7	-17,703
957,9	-17,575
958,1	-16,164
958,3	-16,937
958,5	-17,624
958,7	-18,502
958,9	-17,82
959,1	-17,986
959,3	-18,072
959,5	-17,533
959,7	-17,676
959,9	-18,789
960,1	-19,596
960,3	-19,607
960,5	-16,922
960,7	-16,59
960,9	-14,95
961,1	-15,21
961,4	-16,632
961,6	-18,706
961,8	-18,944
962	-18,393
962,2	-16,918
962,4	-19,822
962,6	-20
962,8	-21,15
963	-21,731
963,2	-22,278
963,4	-22,285
963,6	-24,148
963,8	-24,02
964	-25,597
964,2	-26,577
964,4	-25,514
964,6	-24,461
964,8	-23,364
965	-22,681
965,2	-23,858
965,5	-23,058
965,7	-22,278
965,9	-22,131
966,1	-22,798
966,3	-20,694
966,5	-17,318
966,7	-18,951
966,9	-19,694
967,1	-21,335
967,3	-21,712
967,5	-21,003
967,7	-21,222
967,9	-19,702
968,1	-17,386
968,3	-15,474
968,5	-16,99
968,7	-14,154
968,9	-13,324
969,1	-12,302
969,3	-10,699
969,5	-10,643
969,7	-9,56
969,9	-7,618
970,2	-6,939
970,4	-5,465
970,6	-5,762
970,8	-6,468
971	-5,646
971,2	-6,045
971,4	-6,253
971,6	-5,521
971,8	-5,736
972	-7,15
972,2	-6,008
972,4	-6,434
972,6	-7,852
972,8	-9,651
973	-8,697
973,2	-8,84
973,4	-9,055
973,6	-9,451
973,8	-10,013
974	-9,044
974,2	-9,707
974,4	-11,925
974,6	-13,241
974,8	-12,902
975	-13,528
975,2	-15,138
975,5	-16,847
975,7	-16,262
975,9	-15,659
976,1	-15,938
976,3	-17,201
976,5	-15,647
976,7	-16,398
976,9	-15,251
977,1	-15,949
977,3	-16,575
977,5	-18,159
977,7	-18,68
977,9	-17,375
978,1	-16,967
978,3	-16,406
978,5	-17,605
978,7	-15,504
978,9	-14,874
979,1	-15,448
979,3	-14,663
979,5	-15,236
979,7	-14,987
979,9	-14,893
980,1	-15,749
980,3	-16,1
980,5	-16,134
980,7	-14,603
980,9	-13,886
981,1	-15,059
981,3	-13,947
981,5	-13,249
981,7	-12,687
981,9	-13,781
982,2	-12,902
982,4	-13,777
982,6	-10,858
982,8	-13,796
983	-14,014
983,2	-13,807
983,4	-13,475
983,6	-13,996
983,8	-11,442
984	-10,367
984,2	-10,179
984,4	-11,133
984,6	-12,178
984,8	-12,611
985	-11,767
985,2	-10,812
985,4	-11,495
985,6	-13,011
985,8	-12,472
986	-10,19
986,2	-8,878
986,4	-8,452
986,6	-6,483
986,8	-6,683
987	-6,207
987,2	-6,6
987,4	-7,271
987,6	-8,188
987,8	-8,621
988	-8,485
988,2	-9,059
988,4	-10,118
988,6	-9,583
988,8	-13,196
989	-11,25
989,2	-11,239
989,4	-10,39
989,6	-9,666
989,8	-9,492
990	-8,957
990,2	-9,538
990,4	-11,144
990,6	-9,689
990,8	-8,286
991	-7,792
991,3	-9,002
991,5	-10,499
991,7	-11,503
991,9	-10,903
992,1	-11,638
992,3	-11,846
992,5	-12,577
992,7	-11,804
992,9	-13,019
993,1	-12,536
993,3	-13,569
993,5	-14,32
993,7	-12,74
993,9	-12,412
994,1	-12,623
994,3	-11,48
994,5	-10,669
994,7	-9,689
994,9	-9,568
995,1	-8,595
995,3	-8,595
995,5	-7,362
995,7	-8,934
995,9	-8,493
996,1	-9,04
996,3	-12,178
996,5	-13,068
996,7	-14,188
996,9	-14,863
997,1	-16,356
997,3	-16,926
997,5	-17,575
997,7	-16,907
997,9	-15,538
998,1	-13,113
998,3	-13,336
998,5	-13,49
998,7	-13,762
998,9	-12,879
999,1	-12,404
999,3	-12,068
999,5	-12,849
999,7	-14,478
999,9	-16,421
1000,1	-17,94
1000,3	-17,643
1000,5	-18,442
1000,7	-18,77
1000,9	-19,219
1001,1	-18,699
1001,3	-18,567
1001,5	-19,985
1001,7	-20,392
1001,9	-20,366
1002,1	-21,116
1002,3	-20,513
1002,5	-20,426
1002,7	-20,283
1002,9	-19,626
1003,1	-20,279
1003,3	-19,626
1003,5	-18,265
1003,7	-18,759
1003,9	-17,94
1004,1	-17,82
1004,3	-18,642
1004,5	-17,345
1004,7	-18,08
1004,9	-18,34
1005,1	-18,521
1005,3	-19,178
1005,5	-19,856
1005,7	-18,476
1005,9	-17,929
1006,1	-16,043
1006,3	-15,025
1006,5	-15,632
1006,7	-14,991
1006,9	-14,554
1007,1	-14,95
1007,3	-15,938
1007,5	-15,319
1007,7	-14,742
1007,9	-15,651
1008,1	-15,146
1008,3	-15,651
1008,5	-15,436
1008,7	-12,053
1008,9	-11,205
1009,1	-9,451
1009,3	-10,782
1009,5	-10,277
1009,7	-11,02
1009,9	-9,885
1010,1	-12,148
1010,3	-11,231
1010,5	-12,785
1010,7	-14,007
1010,9	-14,595
1011,1	-14,603
1011,3	-14,701
1011,5	-14,64
1011,7	-14,859
1011,9	-15,795
1012,1	-13,539
1012,3	-13,694
1012,5	-13,709
1012,7	-13,901
1012,9	-14,226
1013,1	-15,504
1013,3	-15,485
1013,5	-14,618
1013,7	-14,995
1013,9	-16,01
1014,1	-14,765
1014,3	-15,632
1014,5	-15,73
1014,7	-15,602
1014,9	-18,231
1015,1	-17,597
1015,3	-19,23
1015,5	-18,785
1015,7	-19,434
1015,9	-19,396
1016,1	-20,686
1016,3	-18,37
1016,5	-20,641
1016,7	-19,483
1016,9	-19,596
1017,1	-21,026
1017,3	-21,965
1017,5	-21,425
1017,7	-21,735
1017,9	-21,569
1018,1	-20,622
1018,3	-22,002
1018,5	-23,511
1018,7	-22,87
1018,9	-22,496
1019,1	-23,477
1019,2	-24,31
1019,4	-24,393
1019,6	-24,722
1019,8	-24,974
1020	-24,009
1020,2	-24,842
1020,4	-22,18
1020,6	-22,368
1020,8	-24,103
1021	-22,681
1021,2	-23,941
1021,4	-22,972
1021,6	-21,637
1021,8	-20,675
1022	-21,033
1022,2	-19,098
1022,4	-18,993
1022,6	-19,37
1022,8	-19,687
1023	-19,562
1023,2	-17,922
1023,4	-17,643
1023,6	-18,755
1023,8	-15,621
1024	-15,58
1024,2	-18,069
1024,4	-17,148
1024,6	-16,251
1024,8	-17,032
1025	-16,315
1025,2	-16,417
1025,4	-13,841
1025,6	-13,781
1025,8	-14,026
1026	-13,947
1026,2	-14,214
1026,4	-14,214
1026,6	-15,749
1026,8	-14,403
1027	-13,517
1027,2	-14,154
1027,4	-13,509
1027,6	-13,867
1027,8	-14,954
1028	-15,889
1028,1	-14,192
1028,3	-15,282
1028,5	-16,643
1028,7	-16,066
1028,9	-17,805
1029,1	-18,171
1029,3	-18,419
1029,5	-17,971
1029,7	-18,386
1029,9	-21,176
1030,1	-19,23
1030,3	-17,903
1030,5	-16,828
1030,7	-16,281
1030,9	-14,969
1031,1	-14,848
1031,3	-15,365
1031,5	-15,365
1031,7	-16,043
1031,9	-15,463
1032,1	-15,444
1032,3	-15,953
1032,5	-16,892
1032,7	-18,827
1032,9	-20,641
1033,1	-21,029
1033,3	-20,29
1033,5	-20,743
1033,7	-21,75
1033,9	-21,561
1034,1	-21,059
1034,3	-20,086
1034,4	-20,867
1034,6	-20,746
1034,8	-18,993
1035	-17,058
1035,2	-16,477
1035,4	-15,531
1035,6	-16,255
1035,8	-15,991
1036	-16,73
1036,2	-19,034
1036,4	-19,015
1036,6	-20,482
1036,8	-22,364
1037	-23,051
1037,2	-24,393
1037,4	-24,567
1037,6	-25,604
1037,8	-25,004
1038	-26,272
1038,2	-26
1038,4	-25,936
1038,6	-24,484
1038,8	-23,19
1039	-20,901
1039,2	-20,845
1039,4	-22,149
1039,5	-20,724
1039,7	-20,543
1039,9	-19,377
1040,1	-20,086
1040,3	-20,95
1040,5	-19,521
1040,7	-19,283
1040,9	-20,117
1041,1	-22,236
1041,3	-22,783
1041,5	-24,537
1041,7	-24,194
1041,9	-24,046
1042,1	-23,654
1042,3	-23,16
1042,5	-22,855
1042,7	-23,145
1042,9	-21,966
1043,1	-22,587
1043,3	-21,939
1043,5	-20,5
1043,7	-20,299
1043,8	-20,346
1044	-19,196
1044,2	-19,535
1044,4	-18,188
1044,6	-18,767
1044,8	-18,586
1045	-20,942
1045,2	-20,597
