Data from mesure_FLMT021711__19__41.txt Node

Date: Mon Nov 04 11:52:53 CET 2024
User: jordan.swietlicki
Spectrometer: FLMT02171
Trigger mode: 0
Integration Time (sec): 1,000000E-1
Scans to average: 15
Electric dark correction enabled: true
Nonlinearity correction enabled: false
Boxcar width: 15
XAxis mode: Wavelengths
Number of Pixels in Spectrum: 3648
>>>>>Begin Spectral Data<<<<<
194,7	-38,141
194,9	-36,554
195,2	-31,817
195,5	-30,828
195,7	-27,495
196	-26,655
196,2	-25,807
196,5	-27,387
196,8	-26,179
197	-25,513
197,3	-25,392
197,6	-22,947
197,8	-22,872
198,1	-21,271
198,4	-19,293
198,6	-18,947
198,9	-15,531
199,2	-11,744
199,4	-7,331
199,7	-0,735
200	-1,301
200,2	-3,013
200,5	-3,967
200,7	-3,775
201	-3,221
201,3	-3,111
201,5	-2,357
201,8	-2,862
202,1	-1,999
202,3	-1,557
202,6	-1,723
202,9	-2,945
203,1	-2,017
203,4	-3,579
203,7	-4,058
203,9	-5,389
204,2	-4,473
204,5	-3,635
204,7	-2,432
205	-2,123
205,2	-1,15
205,5	-0,381
205,8	-0,562
206	2,554
206,3	2,667
206,6	3,794
206,8	4,711
207,1	5,156
207,4	6,442
207,6	8,203
207,9	8,595
208,2	9,354
208,4	10,674
208,7	11,288
208,9	13,095
209,2	12,748
209,5	13,174
209,7	13,457
210	13,966
210,3	15,048
210,5	16,436
210,8	16,417
211,1	17,941
211,3	18,299
211,6	17,688
211,9	17,862
212,1	18,88
212,4	18,454
212,6	19,031
212,9	20,004
213,2	19,627
213,4	19,318
213,7	20,675
214	20,638
214,2	17,67
214,5	17,281
214,8	15,592
215	15,576
215,3	18,314
215,5	19,846
215,8	18,364
216,1	17,903
216,3	19,242
216,6	18,269
216,9	18,311
217,1	18,752
217,4	18,741
217,7	19,005
217,9	16,233
218,2	16,184
218,5	15,011
218,7	13,774
219	13,936
219,2	15,214
219,5	15,252
219,8	16,602
220	17,458
220,3	16,964
220,6	17,56
220,8	16,659
221,1	16,685
221,4	15,637
221,6	16,297
221,9	16,606
222,1	16,12
222,4	15,927
222,7	17,613
222,9	15,999
223,2	14,818
223,5	12,936
223,7	12,423
224	11,435
224,2	10,655
224,5	10,289
224,8	10,598
225	10,983
225,3	9,738
225,6	9,697
225,8	10,285
226,1	12,597
226,4	11,496
226,6	10,432
226,9	11,171
227,1	11,888
227,4	10,711
227,7	9,403
227,9	8,124
228,2	8,071
228,5	7,502
228,7	6,849
229	5,823
229,3	5,823
229,5	9,844
229,8	9,78
230	9,222
230,3	8,003
230,6	9,376
230,8	7,803
231,1	9,964
231,4	9,425
231,6	12,812
231,9	12,778
232,1	14,245
232,4	13,77
232,7	13,314
232,9	12,506
233,2	11,511
233,5	11,243
233,7	12,484
234	11,752
234,2	9,866
234,5	11,481
234,8	13,804
235	13,174
235,3	12,808
235,6	12,631
235,8	13,446
236,1	14,807
236,4	13,845
236,6	15,184
236,9	15,607
237,1	17,066
237,4	16,806
237,7	12,22
237,9	11,435
238,2	9,55
238,5	11,262
238,7	10,36
239	10,534
239,2	9,508
239,5	11,186
239,8	7,822
240	6,763
240,3	9,059
240,6	9,225
240,8	8,792
241,1	9,444
241,3	9,199
241,6	8,343
241,9	5,748
242,1	6,397
242,4	8,052
242,7	7,151
242,9	7,151
243,2	6,729
243,4	7,324
243,7	7,321
244	5,74
244,2	5,846
244,5	6,491
244,8	7,328
245	8,196
245,3	8,98
245,5	8,92
245,8	9,98
246,1	8,931
246,3	8,961
246,6	8,69
246,9	9,436
247,1	9,289
247,4	10,051
247,6	11,533
247,9	11,582
248,2	11,673
248,4	9,082
248,7	9,233
248,9	9,372
249,2	9,361
249,5	10,029
249,7	10,802
250	10,772
250,3	10,515
250,5	9,817
250,8	11,424
251	9,618
251,3	11,036
251,6	12,156
251,8	11,477
252,1	11,635
252,4	9,195
252,6	9,731
252,9	8,384
253,1	6,695
253,4	5,092
253,7	5,492
253,9	6,193
254,2	7,49
254,4	7,381
254,7	7,287
255	8,32
255,2	9,863
255,5	8,995
255,8	7,747
256	8,173
256,3	8,007
256,5	7,992
256,8	7,641
257,1	7,381
257,3	6,457
257,6	7,2
257,8	7,909
258,1	8,995
258,4	10,089
258,6	10,153
258,9	9,915
259,2	9,799
259,4	8,792
259,7	5,458
259,9	4,903
260,2	6,318
260,5	8,132
260,7	7,558
261	6,932
261,2	6,559
261,5	7,045
261,8	6,698
262	7,852
262,3	7,539
262,6	7,539
262,8	6,879
263,1	5,744
263,3	4,281
263,6	4,752
263,9	3,949
264,1	3,651
264,4	5,103
264,6	4,979
264,9	4,492
265,2	4,899
265,4	5,084
265,7	5,416
266	3,583
266,2	4,688
266,5	3,387
266,7	1,581
267	-1,248
267,3	-0,814
267,5	0,604
267,8	2,984
268	4,047
268,3	3,474
268,6	1,645
268,8	2,867
269,1	1,743
269,3	1,041
269,6	-0,075
269,9	-0,516
270,1	-2,244
270,4	-1,158
270,6	-0,26
270,9	-0,558
271,2	-1,463
271,4	-3,194
271,7	-5,012
272	-5,736
272,2	-4,631
272,5	-5,774
272,7	-4,759
273	-3,386
273,3	-2,545
273,5	-0,679
273,8	-2,44
274	-0,35
274,3	-2,312
274,6	-1,799
274,8	1,203
275,1	3,04
275,3	3,659
275,6	3,029
275,9	2,116
276,1	2,38
276,4	2,776
276,6	4,424
276,9	4,055
277,2	6,216
277,4	6,589
277,7	9,674
277,9	9,772
278,2	10,213
278,5	9,998
278,7	10,402
279	9,964
279,2	10,658
279,5	11,582
279,8	13,193
280	14,705
280,3	12,627
280,5	11,518
280,8	11,575
281,1	10,579
281,3	11,39
281,6	9,734
281,9	11,929
282,1	11,16
282,4	11,375
282,6	11,488
282,9	10,477
283,2	9,421
283,4	8,237
283,7	7,72
283,9	7,743
284,2	7,875
284,5	7,102
284,7	5,605
285	4,658
285,2	2,901
285,5	5,009
285,8	2,938
286	7,11
286,3	8,116
286,5	7,159
286,8	6,981
287,1	8,177
287,3	7,951
287,6	6,887
287,8	6,966
288,1	5,676
288,4	5,744
288,6	8,769
288,9	8,313
289,1	8,848
289,4	6,348
289,7	7,653
289,9	5,476
290,2	6,978
290,4	8,248
290,7	7,449
290,9	5,861
291,2	7,498
291,5	9,836
291,7	10,741
292	11,73
292,2	11,175
292,5	11,737
292,8	13,713
293	12,68
293,3	13,943
293,5	14,901
293,8	15,097
294,1	12,344
294,3	10,5
294,6	10,225
294,8	10,67
295,1	11,254
295,4	11,439
295,6	12,408
295,9	12,91
296,1	11,963
296,4	12,676
296,7	9,406
296,9	9,312
297,2	7,192
297,4	8,358
297,7	7,015
298	8,279
298,2	7,015
298,5	8,32
298,7	9,372
299	11,047
299,3	10,33
299,5	7,192
299,8	7,204
300	6,898
300,3	7,023
300,5	7,46
300,8	5,099
301,1	7,226
301,3	7,675
301,6	4,311
301,8	2,38
302,1	1,498
302,4	2,086
302,6	2,546
302,9	2,738
303,1	0,988
303,4	2,161
303,7	3,176
303,9	0,83
304,2	1,562
304,4	1,75
304,7	3,142
304,9	1,664
305,2	5,273
305,5	5,857
305,7	5,145
306	5,601
306,2	6,864
306,5	5,246
306,8	4,632
307	2,297
307,3	2,327
307,5	3,768
307,8	2,029
308,1	0,747
308,3	1,961
308,6	0,6
308,8	2,478
309,1	2,784
309,3	4,013
309,6	4,813
309,9	7,381
310,1	7,098
310,4	8,701
310,6	9,651
310,9	8,546
311,2	9,912
311,4	8,724
311,7	8,573
311,9	9,455
312,2	10,496
312,5	10,436
312,7	10,066
313	10,327
313,2	9,629
313,5	8,339
313,7	7,947
314	6,883
314,3	5,375
314,5	6,046
314,8	6,879
315	9,312
315,3	8,218
315,6	7,321
315,8	6,683
316,1	7,275
316,3	6,027
316,6	7,981
316,8	6,944
317,1	5,846
317,4	2,976
317,6	2,44
317,9	1,275
318,1	1,35
318,4	0,619
318,6	-0,26
318,9	-1,169
319,2	-2,149
319,4	-2,259
319,7	-2,798
319,9	-2,157
320,2	-2,466
320,5	-2,176
320,7	-1,999
321	-1,855
321,2	-3,353
321,5	-1,603
321,7	-0,829
322	0,434
322,3	0,046
322,5	0,445
322,8	-1,538
323	-3,021
323,3	-1,274
323,5	0,076
323,8	1,626
324,1	1,686
324,3	2,539
324,6	0,626
324,8	2,112
325,1	0,868
325,4	2,618
325,6	4,345
325,9	3,874
326,1	5,246
326,4	4,473
326,6	3,5
326,9	5,409
327,2	5,427
327,4	5,816
327,7	5,771
327,9	6,408
328,2	6,698
328,4	6,272
328,7	9,327
329	9,376
329,2	9,859
329,5	7,966
329,7	8,942
330	8,686
330,2	10,315
330,5	10,911
330,8	11,628
331	12,967
331,3	11,292
331,5	10,971
331,8	9,214
332	9,203
332,3	7,11
332,6	7,826
332,8	6,725
333,1	8,184
333,3	8,697
333,6	8,667
333,8	9,783
334,1	8,565
334,4	8,116
334,6	8,011
334,9	6,378
335,1	6,114
335,4	5,133
335,6	6,702
335,9	5,375
336,2	3,764
336,4	3,636
336,7	0,834
336,9	2,373
337,2	2,135
337,4	2,75
337,7	2,308
338	0,445
338,2	0,257
338,5	-1,55
338,7	-1,203
339	-0,999
339,2	1,777
339,5	0,34
339,8	2,252
340	2,256
340,3	3,583
340,5	4,473
340,8	7,404
341	7,645
341,3	6,155
341,6	6,11
341,8	5,91
342,1	4,847
342,3	5,461
342,6	7,984
342,8	9,195
343,1	9,602
343,4	10,066
343,6	7,837
343,9	9,116
344,1	10,617
344,4	10,941
344,6	10,195
344,9	9,18
345,1	9,282
345,4	9,248
345,7	9,018
345,9	10,304
346,2	9,025
346,4	8,837
346,7	7,864
346,9	7,951
347,2	5,382
347,5	7,015
347,7	6,038
348	5,333
348,2	5,982
348,5	5,458
348,7	6,683
349	6,299
349,2	7,106
349,5	7,027
349,8	6,857
350	7,162
350,3	7,174
350,5	6,204
350,8	5,876
351	5,971
351,3	6,363
351,6	6,053
351,8	4,703
352,1	4,413
352,3	4,545
352,6	5,699
352,8	6,11
353,1	6,514
353,3	6,393
353,6	5,699
353,9	5,341
354,1	5,19
354,4	6,329
354,6	7,951
354,9	6,793
355,1	8,43
355,4	8,034
355,6	8,701
355,9	9,003
356,2	9,154
356,4	9,312
356,7	5,382
356,9	6,646
357,2	6,966
357,4	6,872
357,7	6,574
358	9,489
358,2	9,761
358,5	9,406
358,7	9,074
359	10,108
359,2	11,266
359,5	12,133
359,7	14,585
360	14,969
360,3	16,836
360,5	17,172
360,8	16,697
361	17,885
361,3	17,507
361,5	18,405
361,8	18,296
362	19,393
362,3	18,925
362,6	19,088
362,8	21,581
363,1	21,652
363,3	22,746
363,6	23,719
363,8	25,231
364,1	23,342
364,3	23,919
364,6	24,907
364,8	25,107
365,1	24,194
365,4	26,382
365,6	26,989
365,9	25,967
366,1	26,506
366,4	26,536
366,6	27,773
366,9	27,649
367,1	27,143
367,4	29,452
367,7	28,859
367,9	30,021
368,2	28,626
368,4	26,77
368,7	27,656
368,9	27,841
369,2	27,083
369,4	27,294
369,7	29,403
370	29,64
370,2	29,848
370,5	29,983
370,7	29,512
371	30,787
371,2	30,704
371,5	30,941
371,7	30,5
372	31,967
372,2	31,186
372,5	31,813
372,8	31,119
373	30,658
373,3	27,845
373,5	30,115
373,8	29,022
374	28,603
374,3	29,927
374,5	31,364
374,8	33,283
375	33,483
375,3	33,227
375,6	32,918
375,8	32,959
376,1	34,404
376,3	37,111
376,6	36,263
376,8	34,996
377,1	38,895
377,3	38,741
377,6	37,07
377,8	37,673
378,1	39,608
378,4	39,883
378,6	39,751
378,9	37,338
379,1	38,839
379,4	39,382
379,6	38,88
379,9	38,484
380,1	39,205
380,4	39,778
380,6	40,389
380,9	41,011
381,2	42,456
381,4	42,003
381,7	44,277
381,9	45,424
382,2	46,087
382,4	44,568
382,7	42,342
382,9	42,561
383,2	43,168
383,4	43,719
383,7	45,575
383,9	44,322
384,2	44,304
384,5	46,751
384,7	48,068
385	47,061
385,2	49,184
385,5	50,666
385,7	51,469
386	52,009
386,2	53,348
386,5	53,038
386,7	56,331
387	56,331
387,2	57,643
387,5	60,672
387,8	63,183
388	66,155
388,3	67,234
388,5	68,901
388,8	71,616
389	72,725
389,3	71,752
389,5	71,085
389,8	73,374
390	72,684
390,3	73,811
390,5	75,305
390,8	78,677
391,1	79,197
391,3	81,249
391,6	81,89
391,8	85,465
392,1	86,978
392,3	89,308
392,6	91,273
392,8	93,302
393,1	97,541
393,3	100,129
393,6	102,045
393,8	103,104
394,1	106,355
394,4	111,266
394,6	114,057
394,9	117,376
395,1	120,985
395,4	122,437
395,6	126,981
395,9	128,686
396,1	132,348
396,4	136,342
396,6	140,479
396,9	144,439
397,1	149,78
397,4	156,04
397,6	159,408
397,9	165,85
398,2	172,612
398,4	179,616
398,7	184,051
398,9	189,237
399,2	194,351
399,4	199,65
399,7	202,878
399,9	207,736
400,2	211,322
400,4	216,452
400,7	221,999
400,9	224,779
401,2	230,161
401,4	235,241
401,7	240,74
401,9	244,217
402,2	245,752
402,5	249,542
402,7	251,455
403	254,091
403,2	259,427
403,5	261,668
403,7	266,137
404	270,104
404,2	272,925
404,5	278,477
404,7	284,078
405	288,607
405,2	291,817
405,5	295,746
405,7	299,427
406	301,811
406,2	304,485
406,5	307,826
406,7	309,588
407	311,843
407,3	314,298
407,5	317,983
407,8	321,34
408	323,516
408,3	326,808
408,5	331,387
408,8	333,71
409	337,892
409,3	340,766
409,5	344,036
409,8	346,193
410	351,372
410,3	354,415
410,5	360,31
410,8	362,245
411	364,127
411,3	367,487
411,5	370,47
411,8	371,9
412	373,552
412,3	374,287
412,6	375,498
412,8	376,497
413,1	376,995
413,3	379,273
413,6	379,703
413,8	380,714
414,1	381,551
414,3	382,505
414,6	384,708
414,8	383,885
415,1	384,289
415,3	384,715
415,6	386,182
415,8	387,517
416,1	388,411
416,3	385,914
416,6	387,702
416,8	386,163
417,1	388,147
417,3	386,382
417,6	387,932
417,8	388,656
418,1	389,448
418,4	389,067
418,6	391,07
418,9	391,896
419,1	392,013
419,4	391,078
419,6	391,492
419,9	392,507
420,1	391,308
420,4	391,194
420,6	391,096
420,9	390,27
421,1	389,407
421,4	390,097
421,6	390,104
421,9	389,444
422,1	387,77
422,4	388,151
422,6	389,961
422,9	388,656
423,1	388,871
423,4	389,12
423,6	389,128
423,9	389,626
424,1	390,814
424,4	388,17
424,6	386,963
424,9	384,96
425,1	384,866
425,4	382,399
425,6	381,894
425,9	378,869
426,2	377,297
426,4	373,31
426,7	370,274
426,9	366,725
427,2	362,882
427,4	360,861
427,7	359,16
427,9	356,622
428,2	355,592
428,4	356,21
428,7	357,266
428,9	357,236
429,2	358,149
429,4	358,952
429,7	358,7
429,9	357,18
430,2	356,569
430,4	356,101
430,7	358,824
430,9	359,141
431,2	358,021
431,4	358,96
431,7	358,074
431,9	357,904
432,2	361,317
432,4	363,263
432,7	364,296
432,9	367,959
433,2	372,024
433,4	372,145
433,7	375,03
433,9	376,09
434,2	378,673
434,4	381,611
434,7	385,254
434,9	388,781
435,2	389,923
435,4	391,345
435,7	394,072
435,9	395,268
436,2	396,373
436,4	397,27
436,7	397,772
436,9	396,674
437,2	395,811
437,4	398,496
437,7	401,988
437,9	404,911
438,2	406,982
438,4	407,268
438,7	407,977
438,9	409,365
439,2	408,702
439,4	408,652
439,7	409,494
439,9	409,675
440,2	409,294
440,5	410,825
440,7	410,229
441	409,901
441,2	411,296
441,5	411,598
441,7	412,33
442	414,008
442,2	414,513
442,5	413,555
442,7	415,98
443	417,968
443,2	419,111
443,5	419,148
443,7	419,816
444	419,394
444,2	420,34
444,5	422,019
444,7	424,138
445	425,085
445,2	424,478
445,5	424,221
445,7	424,749
446	424,459
446,2	424,904
446,5	427,023
446,7	428,494
447	430,765
447,2	433,325
447,5	436,007
447,7	434,808
448	436,437
448,2	437,923
448,5	438,9
448,7	440,608
449	440,468
449,2	440,778
449,5	440,563
449,7	440,152
450	440,416
450,2	443,863
450,5	442,618
450,7	444,775
451	445,718
451,2	447,744
451,5	448,302
451,7	450,633
452	453,386
452,2	454,197
452,5	454,559
452,7	456,637
452,9	458,006
453,2	459,115
453,4	460,838
453,7	463,391
453,9	464,134
454,2	463,331
454,4	463,772
454,7	465,805
454,9	465,473
455,2	464,877
455,4	466,476
455,7	469,49
455,9	467,985
456,2	469,162
456,4	468,845
456,7	469,475
456,9	470,41
457,2	471,79
457,4	474,774
457,7	477,998
457,9	478,225
458,2	480,77
458,4	481,577
458,7	483,259
458,9	483,124
459,2	484,647
459,4	487,238
459,7	488,37
459,9	488,287
460,2	489,893
460,4	489,445
460,7	492,111
460,9	494,468
461,2	493,258
461,4	493,337
461,7	495,358
461,9	497,006
462,2	496,614
462,4	495,777
462,7	497,942
462,9	497,798
463,2	498,051
463,4	495,019
463,7	497,357
463,9	496,886
464,2	496,938
464,4	497,485
464,7	498,639
464,9	499,005
465,2	499,111
465,4	498,025
465,7	499,673
465,9	500,484
466,2	500,887
466,4	500,091
466,6	501,872
466,9	500,416
467,1	497,425
467,4	496,075
467,6	498,025
467,9	496,297
468,1	497,546
468,4	495,69
468,6	494,525
468,9	494,253
469,1	494,457
469,4	494,457
469,6	494,759
469,9	494,823
470,1	496,923
470,4	495,079
470,6	497,014
470,9	499,405
471,1	502,158
471,4	500,993
471,6	501,291
471,9	504,014
472,1	505,805
472,4	506,133
472,6	508,253
472,9	508,283
473,1	509,841
473,4	510,169
473,6	511,877
473,9	511,474
474,1	513,559
474,3	514,265
474,6	518,556
474,8	519,413
475,1	521,608
475,3	521,958
475,6	524,579
475,8	526,424
476,1	529,516
476,3	530,161
476,6	532,707
476,8	533,461
477,1	536,271
477,3	538,813
477,6	542,773
477,8	542,645
478,1	546,175
478,3	549,316
478,6	552,115
478,8	552,36
479,1	553,684
479,3	555,668
479,6	557,146
479,8	557,84
480,1	561,253
480,3	562,626
480,5	564,825
480,8	565,183
481	567,039
481,3	566,673
481,5	568,758
481,8	568,004
482	569,641
482,3	567,559
482,5	566,94
482,8	564,953
483	564,636
483,3	564,572
483,5	565,59
483,8	564,025
484	564,448
484,3	563,878
484,5	565,847
484,8	565,967
485	564,576
485,2	563,214
485,5	565,232
485,7	565,179
486	564,549
486,2	564,519
486,5	567,649
486,7	570,116
487	573,412
487,2	572,907
487,5	575,566
487,7	576,211
488	576,052
488,2	577,022
488,5	578,266
488,7	577,629
489	578,296
489,2	578,345
489,5	581,313
489,7	583,165
489,9	584,58
490,2	586,646
490,4	590,395
490,7	593,386
490,9	595,441
491,2	596,29
491,4	599,616
491,7	603,701
491,9	605,707
492,2	607,137
492,4	607,416
492,7	610,478
492,9	613,959
493,2	615,404
493,4	615,645
493,6	615,758
493,9	616,478
494,1	614,325
494,4	614,612
494,6	612,526
494,9	611,131
495,1	609,72
495,4	609,32
495,6	611,051
495,9	612,669
496,1	613,808
496,4	615,585
496,6	617,346
496,9	620,02
497,1	618,474
497,3	616,705
497,6	616,724
497,8	618,598
498,1	616,365
498,3	614,148
498,6	611,27
498,8	609,55
499,1	608,355
499,3	607,057
499,6	607,634
499,8	606,073
500,1	603,41
500,3	601,197
500,6	597,998
500,8	594,947
501	595,343
501,3	592,435
501,5	589,162
501,8	589,652
502	589,961
502,3	587,401
502,5	586,673
502,8	586,416
503	587,118
503,3	584,399
503,5	580,955
503,8	579,843
504	577,059
504,2	575,973
504,5	573,767
504,7	574,05
505	572,635
505,2	572,458
505,5	571,84
505,7	571,938
506	570,648
506,2	572,462
506,5	571,474
506,7	568,37
506,9	565,9
507,2	563,829
507,4	560,876
507,7	562,117
507,9	561,449
508,2	562,007
508,4	559,801
508,7	558,187
508,9	557,987
509,2	557,787
509,4	555,988
509,7	552,741
509,9	552,658
510,1	551,229
510,4	548,238
510,6	543,214
510,9	542,192
511,1	541,215
511,4	539,711
511,6	537,979
511,9	534,276
512,1	530,523
512,4	529,135
512,6	527,993
512,8	524,395
513,1	519,899
513,3	516,301
513,6	513,205
513,8	509,788
514,1	505,847
514,3	502,886
514,6	500,374
514,8	495,739
515,1	493,989
515,3	489,49
515,5	487,363
515,8	483,984
516	483,131
516,3	480,189
516,5	477,18
516,8	474,566
517	471,926
517,3	470,12
517,5	468,883
517,7	467,476
518	466,092
518,2	464,278
518,5	461,856
518,7	458,926
519	456,29
519,2	454,645
519,5	453,902
519,7	452,183
520	449,882
520,2	448,517
520,4	449,199
520,7	450,931
520,9	451,123
521,2	451,53
521,4	450,32
521,7	453,231
521,9	453,985
522,2	452,579
522,4	455,664
522,6	455,449
522,9	455,475
523,1	453,548
523,4	452,703
523,6	450,157
523,9	449,912
524,1	449,867
524,4	447,921
524,6	446,82
524,8	445,062
525,1	443,052
525,3	443,701
525,6	443,327
525,8	445,164
526,1	445,741
526,3	447,14
526,6	445,824
526,8	444,519
527	445,609
527,3	446,182
527,5	445,715
527,8	445,534
528	443,621
528,3	443,923
528,5	443,769
528,8	442,241
529	441,607
529,2	442,09
529,5	441,132
529,7	442,411
530	440,318
530,2	441,555
530,5	440,095
530,7	439,665
531	439,405
531,2	441,26
531,4	440,148
531,7	441,249
531,9	441,468
532,2	442,241
532,4	442,746
532,7	443,346
532,9	441,868
533,2	441,162
533,4	440,186
533,6	439,115
533,9	436,765
534,1	436,689
534,4	438,538
534,6	439,198
534,9	437,361
535,1	436,029
535,3	434,736
535,6	435,302
535,8	432,043
536,1	432,25
536,3	432,82
536,6	433,601
536,8	431,062
537,1	431,534
537,3	429,165
537,5	427,868
537,8	425,794
538	425,865
538,3	425,009
538,5	422,848
538,8	421,702
539	420,389
539,2	418,986
539,5	418,862
539,7	418,281
540	417,082
540,2	417,417
540,5	416,161
540,7	415,596
540,9	413,646
541,2	412,571
541,4	415,535
541,7	417,41
541,9	415,415
542,2	411,477
542,4	411,394
542,7	411,436
542,9	412,066
543,1	411,217
543,4	412,473
543,6	411,632
543,9	410,663
544,1	409,188
544,4	408,174
544,6	405,492
544,8	405,677
545,1	405,073
545,3	403,595
545,6	403,972
545,8	404,006
546,1	403,802
546,3	402,98
546,5	403,433
546,8	403,063
547	402,007
547,3	400,453
547,5	400,423
547,8	398,534
548	397,953
548,2	397,134
548,5	394,853
548,7	394,227
549	389,663
549,2	388,23
549,5	385,522
549,7	384,67
549,9	382,467
550,2	379,601
550,4	376,527
550,7	375,173
550,9	370,342
551,2	369,192
551,4	367,615
551,6	365,662
551,9	363,855
552,1	362,316
552,4	360,401
552,6	357,768
552,9	357,934
553,1	354,785
553,3	352,892
553,6	351,04
553,8	347,977
554,1	346,846
554,3	343,003
554,5	340,095
554,8	336,331
555	332,017
555,3	328,69
555,5	325,59
555,8	321,362
556	319,835
556,2	314,89
556,5	313,035
556,7	308,49
557	308,924
557,2	305,515
557,5	305,288
557,7	304,564
557,9	301,852
558,2	299,333
558,4	299,865
558,7	295,505
558,9	293,766
559,2	292,435
559,4	290,142
559,6	289,614
559,9	288,916
560,1	286,231
560,4	284,636
560,6	282,709
560,8	280,453
561,1	278,27
561,3	278,801
561,6	275,75
561,8	275,12
562,1	272,805
562,3	272,314
562,5	272,103
562,8	271,413
563	269,229
563,3	269,92
563,5	269,301
563,7	269,169
564	266,525
564,2	265,496
564,5	262,365
564,7	262,727
565	261,351
565,2	258,545
565,4	258,047
565,7	258,798
565,9	256,014
566,2	256,165
566,4	254,679
566,6	254,023
566,9	254,102
567,1	253,702
567,4	250,87
567,6	251,356
567,9	248,154
568,1	247,766
568,3	246,555
568,6	245,827
568,8	244,33
569,1	242,173
569,3	239,676
569,5	239,114
569,8	238,831
570	237,621
570,3	237,598
570,5	237,749
570,7	236,256
571	235,901
571,2	236,188
571,5	235,886
571,7	233,627
572	233,287
572,2	231,519
572,4	231,096
572,7	232,05
572,9	231,9
573,2	229,414
573,4	227,966
573,6	226,389
573,9	225,16
574,1	222,452
574,4	218,903
574,6	217,956
574,8	216,553
575,1	215,147
575,3	214,328
575,6	212,522
575,8	211,998
576	210,696
576,3	208,66
576,5	211,164
576,8	212,341
577	213,129
577,3	213,008
577,5	212,039
577,7	211,206
578	211,239
578,2	210,655
578,5	208,252
578,7	208,06
578,9	208,136
579,2	207,981
579,4	206,48
579,7	205,843
579,9	203,402
580,1	202,897
580,4	202,052
580,6	201,66
580,9	203,708
581,1	202,788
581,3	203,225
581,6	201,034
581,8	202,26
582,1	201,381
582,3	202,471
582,5	202,395
582,8	204,051
583	206,223
583,3	207,268
583,5	206,212
583,7	206,748
584	204,651
584,2	203,666
584,5	203,048
584,7	202,629
584,9	203,003
585,2	201,713
585,4	201,207
585,7	199,982
585,9	198,59
586,1	197,025
586,4	195,546
586,6	196,58
586,9	195,494
587,1	195,03
587,3	195,207
587,6	194,709
587,8	193,657
588,1	193,265
588,3	190,892
588,5	191,055
588,8	189,075
589	190,093
589,3	188,671
589,5	188,049
589,7	187,988
590	187,479
590,2	186,733
590,5	184,077
590,7	183,04
590,9	184,044
591,2	183,534
591,4	182,573
591,7	184,409
591,9	186,239
592,1	186,227
592,4	186,246
592,6	185,586
592,9	185,639
593,1	187,374
593,3	188,652
593,6	189,697
593,8	190,851
594,1	190,923
594,3	192,88
594,5	193,416
594,8	193,642
595	195,196
595,3	196,282
595,5	198,73
595,7	201,566
596	202,923
596,2	204,779
596,4	208,735
596,7	210,576
596,9	211,643
597,2	211,817
597,4	213,838
597,6	214,969
597,9	216,199
598,1	217,636
598,4	220,159
598,6	222,573
598,8	224,221
599,1	223,896
599,3	224,998
599,6	225,518
599,8	227,796
600	231,685
600,3	233,883
600,5	234,004
600,7	236,874
601	239,22
601,2	240,449
601,5	241,962
601,7	244,047
601,9	246,461
602,2	249,573
602,4	249,674
602,7	250,836
602,9	251,096
603,1	252,725
603,4	253,634
603,6	255,486
603,9	256,339
604,1	257,681
604,3	260,106
604,6	261,132
604,8	262,124
605	263,376
605,3	264,624
605,5	265,465
605,8	265,217
606	266,092
606,2	267,777
606,5	269,082
606,7	266,623
607	267,457
607,2	266,265
607,4	264,191
607,7	263,497
607,9	263,806
608,1	265,013
608,4	264,986
608,6	265,956
608,9	266,582
609,1	266,363
609,3	266,118
609,6	265,333
609,8	266,714
610,1	266,77
610,3	264,572
610,5	262,682
610,8	262,569
611	262,441
611,2	261,675
611,5	262,165
611,7	260,619
612	261,562
612,2	260,936
612,4	260,589
612,7	259,842
612,9	260,442
613,1	259,009
613,4	258,322
613,6	257,376
613,9	257,372
614,1	258,156
614,3	258,198
614,6	259,148
614,8	260,664
615	261,072
615,3	261,841
615,5	261,83
615,8	260,257
616	260,555
616,2	259,269
616,5	259,85
616,7	260,74
616,9	260,461
617,2	259,582
617,4	261,339
617,7	262,599
617,9	262,101
618,1	261,509
618,4	260,951
618,6	259,375
618,8	261,026
619,1	262,116
619,3	261,264
619,6	260,253
619,8	259,435
620	259,827
620,3	258,986
620,5	260,314
620,7	259,382
621	258,85
621,2	256,87
621,5	257,044
621,7	257,643
621,9	256,878
622,2	255,169
622,4	255,716
622,6	254,932
622,9	252,986
623,1	254,144
623,4	252,654
623,6	253,046
623,8	252,782
624,1	251,058
624,3	251,326
624,5	252,224
624,8	251,062
625	250,459
625,3	251,281
625,5	251,519
625,7	252,073
626	251,602
626,2	249,474
626,4	248,181
626,7	248,2
626,9	249,671
627,1	249,927
627,4	249,81
627,6	248,935
627,9	248,517
628,1	248,226
628,3	248,166
628,6	248,743
628,8	249,55
629	248,875
629,3	250,074
629,5	251,428
629,8	249,045
630	249,29
630,2	248,418
630,5	248,358
630,7	249,169
630,9	248,886
631,2	247,412
631,4	247,332
631,6	246,751
631,9	245,296
632,1	244,609
632,4	245,843
632,6	246,159
632,8	246,959
633,1	246,669
633,3	247,981
633,5	247,34
633,8	247,461
634	248,867
634,2	248,894
634,5	248,286
634,7	249,195
635	249,063
635,2	249,987
635,4	251,979
635,7	254,038
635,9	253,864
636,1	253,442
636,4	253,559
636,6	250,896
636,8	250,734
637,1	252,873
637,3	253,668
637,5	254,381
637,8	254,245
638	253,642
638,3	253,385
638,5	255,724
638,7	255,415
639	256,58
639,2	257,821
639,4	258,239
639,7	257,677
639,9	256,569
640,1	259,095
640,4	260,959
640,6	259,944
640,9	261,102
641,1	262,049
641,3	260,442
641,6	260,219
641,8	260,717
642	258,76
642,3	258,564
642,5	257,836
642,7	255,513
643	255,35
643,2	254,064
643,4	252,982
643,7	251,534
643,9	252,009
644,1	250,519
644,4	251,232
644,6	249,644
644,9	250,082
645,1	249,927
645,3	249,327
645,6	248,931
645,8	245,956
646	246,872
646,3	245,662
646,5	244,534
646,7	244,851
647	243,58
647,2	243,357
647,4	239,899
647,7	237,172
647,9	238,413
648,1	237,926
648,4	236,214
648,6	235,682
648,9	235,135
649,1	235,916
649,3	238,073
649,6	238,5
649,8	238,594
650	238,575
650,3	236,154
650,5	237,519
650,7	237,606
651	237,711
651,2	239,356
651,4	239,182
651,7	236,482
651,9	236,357
652,1	235,912
652,4	235,415
652,6	236,248
652,8	236,399
653,1	236,316
653,3	234,837
653,5	233,815
653,8	232,171
654	232,035
654,3	230,349
654,5	229,938
654,7	227,283
655	226,061
655,2	224,971
655,4	223,557
655,7	224,217
655,9	225,899
656,1	227,249
656,4	225,16
656,6	223,15
656,8	228,045
657,1	229,278
657,3	229,052
657,5	228,524
657,8	229,754
658	230,048
658,2	230,991
658,5	229,395
658,7	229,821
658,9	230,463
659,2	229,18
659,4	227,74
659,6	227,615
659,9	228,06
660,1	226,842
660,3	226,933
660,6	226,091
660,8	226,91
661	227,585
661,3	226,322
661,5	226,242
661,8	226,774
662	227,468
662,2	229,056
662,5	227,868
662,7	228,494
662,9	227,193
663,2	226,529
663,4	222,471
663,6	221,29
663,9	222,275
664,1	216,188
664,3	215,09
664,6	215,35
664,8	214,532
665	212,993
665,3	212,333
665,5	211,13
665,7	212,311
666	211,835
666,2	210,436
666,4	211,492
666,7	210,587
666,9	208,566
667,1	207,189
667,4	208,992
667,6	208,109
667,8	207,936
668,1	206,759
668,3	205,594
668,5	205,239
668,8	205,232
669	203,055
669,2	204,866
669,5	203,795
669,7	203,908
669,9	202,448
670,2	201,698
670,4	200,031
670,6	200,642
670,9	201,543
671,1	199,329
671,3	199,382
671,6	196,467
671,8	195,78
672	196,123
672,3	195,924
672,5	196,029
672,7	194,392
673	194,803
673,2	193,061
673,4	195,132
673,7	194,362
673,9	194,687
674,1	195,011
674,4	193,902
674,6	191,73
674,8	191,236
675,1	190,38
675,3	189,463
675,5	190,24
675,8	189,158
676	189,339
676,2	191,213
676,5	188,777
676,7	188,739
676,9	187,958
677,2	186,959
677,4	185,918
677,6	185,465
677,9	185,492
678,1	183,862
678,3	184,277
678,5	182,252
678,8	181,652
679	179,955
679,2	178,971
679,5	178,028
679,7	175,275
679,9	175,724
680,2	172,627
680,4	174,426
680,6	170,636
680,9	170,002
681,1	169,478
681,3	170,342
681,6	169,357
681,8	169,131
682	168,407
682,3	169,12
682,5	168,863
682,7	166,363
683	165,201
683,2	162,938
683,4	159,74
683,7	157,357
683,9	157,519
684,1	156,191
684,4	156,463
684,6	155,441
684,8	152,929
685,1	150,47
685,3	148,86
685,5	147,619
685,7	146,819
686	145,842
686,2	144,885
686,4	143,097
686,7	140,468
686,9	140,117
687,1	138,069
687,4	137,27
687,6	133,8
687,8	133,351
688,1	132,314
688,3	130,67
688,5	127,868
688,8	129,18
689	126,559
689,2	126,944
689,5	124,387
689,7	122,561
689,9	120,857
690,2	119,469
690,4	119,295
690,6	118,024
690,8	118,605
691,1	116,267
691,3	114,958
691,5	113,547
691,8	112,341
692	114,856
692,2	116,444
692,5	115,844
692,7	115,75
692,9	115,652
693,2	114,637
693,4	114,939
693,6	114,683
693,9	115,599
694,1	115,663
694,3	116,972
694,5	116,685
694,8	116,712
695	116,312
695,2	114,637
695,5	114,298
695,7	114,566
695,9	113,653
696,2	113,857
696,4	112,861
696,6	113,216
696,9	113,366
697,1	116,452
697,3	117,738
697,6	118,729
697,8	119,371
698	120,355
698,2	119,578
698,5	120,721
698,7	121,151
698,9	123,089
699,2	121,969
699,4	120,14
699,6	121,328
699,9	118,696
700,1	118,835
700,3	120,178
700,6	120,649
700,8	122,893
701	122,886
701,2	122,757
701,5	122,625
701,7	122,475
701,9	121,75
702,2	123,463
702,4	125,782
702,6	126,721
702,9	125,424
703,1	123,508
703,3	125,692
703,6	126,291
703,8	126,446
704	126,823
704,2	123,904
704,5	123,915
704,7	124,16
704,9	125,326
705,2	124,654
705,4	125,526
705,6	125,522
705,9	125,922
706,1	126,088
706,3	124,749
706,5	124,206
706,8	124,206
707	125,842
707,2	125,876
707,5	125,42
707,7	123,651
707,9	122,316
708,2	121,234
708,4	120,231
708,6	119,231
708,8	118,556
709,1	119,495
709,3	118,028
709,5	115,569
709,8	115,55
710	117,032
710,2	117,059
710,5	115,279
710,7	113,808
710,9	113,815
711,1	112,914
711,4	113,434
711,6	112,137
711,8	112,967
712,1	112,073
712,3	112,695
712,5	112,51
712,8	112,816
713	110,436
713,2	108,135
713,4	108,954
713,7	109,124
713,9	106,959
714,1	107,166
714,4	105,22
714,6	103,074
714,8	102,139
715,1	100,487
715,3	99,88
715,5	98,435
715,7	96,697
716	94,045
716,2	91,688
716,4	89,825
716,7	88,709
716,9	87,634
717,1	84,756
717,3	85,114
717,6	83,753
717,8	82,727
718	80,879
718,3	79,653
718,5	79,623
718,7	79,337
718,9	76,863
719,2	75,082
719,4	73,691
719,6	71,688
719,9	69,142
720,1	69,829
720,3	68,961
720,6	64,952
720,8	63,515
721	63,9
721,2	61,977
721,5	61,777
721,7	61,554
721,9	62,256
722,2	61,166
722,4	60,468
722,6	62,467
722,8	63,202
723,1	65,854
723,3	67,483
723,5	67,634
723,8	68,886
724	67,306
724,2	66,853
724,4	67,332
724,7	69,403
724,9	70,236
725,1	71,002
725,4	72,982
725,6	70,334
725,8	69,667
726	69,033
726,3	67,792
726,5	67,045
726,7	66,861
727	65,616
727,2	64,085
727,4	64,869
727,6	66,634
727,9	67,638
728,1	67,607
728,3	67,487
728,6	69,105
728,8	71,062
729	69,52
729,2	71,918
729,5	72,231
729,7	71,228
729,9	71,556
730,2	70,809
730,4	70,696
730,6	71,356
730,8	70,081
731,1	71,601
731,3	73,159
731,5	71,337
731,7	69,538
732	69,572
732,2	69,776
732,4	69,154
732,7	71,296
732,9	71,07
733,1	71,552
733,3	72,706
733,6	74,49
733,8	75,248
734	80,125
734,3	81,977
734,5	84,149
734,7	85,722
734,9	85,446
735,2	87,276
735,4	88,158
735,6	87,751
735,9	88,226
736,1	90,432
736,3	91,594
736,5	92,043
736,8	92,435
737	91,726
737,2	92,461
737,4	91,609
737,7	93,295
737,9	97,368
738,1	96,489
738,4	96,761
738,6	98,303
738,8	99,069
739	97,632
739,3	98,183
739,5	97,266
739,7	97,198
739,9	100,909
740,2	102,701
740,4	102,765
740,6	101,856
740,9	102,282
741,1	100,687
741,3	99,608
741,5	98,239
741,8	98,047
742	99,774
742,2	100,717
742,4	100,657
742,7	102,063
742,9	102,233
743,1	100,879
743,4	98,771
743,6	98,79
743,8	99,906
744	101,781
744,3	102,071
744,5	102,282
744,7	101,426
744,9	100,566
745,2	103,938
745,4	103,104
745,6	102,557
745,8	103,176
746,1	105,477
746,3	107,381
746,5	111,024
746,8	110,217
747	109,214
747,2	108,984
747,4	110,481
747,7	110,123
747,9	110,768
748,1	109,308
748,3	111,39
748,6	111,443
748,8	109,908
749	108,822
749,2	107,457
749,5	108,294
749,7	107,97
749,9	107,491
750,2	110,319
750,4	110,681
750,6	111,409
750,8	110,504
751,1	109,942
751,3	109,346
751,5	111,111
751,7	112,431
752	111,039
752,2	109,731
752,4	109,697
752,6	108,524
752,9	108,765
753,1	107,672
753,3	107,238
753,5	105,582
753,8	107,551
754	106,193
754,2	105,658
754,4	105,563
754,7	105,624
754,9	105,416
755,1	105,748
755,4	104,798
755,6	105,922
755,8	107,015
756	105,36
756,3	103,199
756,5	100,559
756,7	96,776
756,9	94,622
757,2	89,701
757,4	86,936
757,6	82,75
757,8	78,99
758,1	77,719
758,3	76,678
758,5	72,887
758,7	68,256
759	64,602
759,2	63,557
759,4	61,735
759,6	61,117
759,9	57,236
760,1	55,791
760,3	51,409
760,5	48,464
760,8	45,062
761	43,595
761,2	41,26
761,4	39,925
761,7	39,178
761,9	38,718
762,1	37,213
762,3	35,184
762,6	31,537
762,8	29,795
763	29,463
763,2	31,59
763,5	31,997
763,7	32,921
763,9	34,366
764,1	36,123
764,4	37,704
764,6	40,657
764,8	43,546
765	43,206
765,3	42,505
765,5	43,659
765,7	45,337
765,9	48,275
766,2	48,071
766,4	49,572
766,6	49,44
766,8	51,813
767,1	52,307
767,3	54,856
767,5	56,346
767,7	58,447
768	59,94
768,2	62,275
768,4	61,807
768,6	61,403
768,9	59,876
769,1	62,086
769,3	64,168
769,5	65,631
769,8	67,902
770	69,527
770,2	68,995
770,4	70,941
770,7	72,258
770,9	72,918
771,1	72,495
771,3	73,713
771,6	74,641
771,8	75,399
772	74,883
772,2	74,705
772,5	75,799
772,7	76,252
772,9	75,512
773,1	74,373
773,4	75,871
773,6	77,685
773,8	75,859
774	76,327
774,3	76,263
774,5	75,467
774,7	75,15
774,9	74,204
775,2	73,596
775,4	75,09
775,6	74,954
775,8	76,576
776	76,372
776,3	75,294
776,5	75,124
776,7	73,559
776,9	73,77
777,2	73,464
777,4	71,462
777,6	70,342
777,8	69,999
778,1	71,447
778,3	70,659
778,5	68,497
778,7	67,622
779	67,694
779,2	68,524
779,4	68,347
779,6	68,339
779,9	67,441
780,1	68,49
780,3	67,336
780,5	64,956
780,7	65,428
781	65,646
781,2	65,707
781,4	63,915
781,6	63,964
781,9	64,598
782,1	62,682
782,3	62,207
782,5	62,241
782,8	60,702
783	61,4
783,2	60,804
783,4	60,66
783,7	59,695
783,9	57,296
784,1	55,731
784,3	56,067
784,5	55,467
784,8	52,857
785	51,058
785,2	49,904
785,4	49,976
785,7	48,765
785,9	49,414
786,1	48,799
786,3	48,181
786,6	48,049
786,8	48,132
787	47,864
787,2	48,034
787,4	48,369
787,7	48,777
787,9	48,456
788,1	47,826
788,3	49,222
788,6	47,573
788,8	44,737
789	44,123
789,2	42,98
789,5	42,048
789,7	40,453
789,9	38,628
790,1	37,734
790,3	37,119
790,6	37,685
790,8	37,866
791	37,994
791,2	38,714
791,5	41,071
791,7	42,501
791,9	43,153
792,1	42,595
792,3	41,505
792,6	41,554
792,8	40,423
793	41,984
793,2	42,535
793,5	42,082
793,7	42,81
793,9	41,366
794,1	40,189
794,3	40,841
794,6	41,452
794,8	39,917
795	40,046
795,2	38,944
795,5	39,812
795,7	40,57
795,9	41,894
796,1	40,434
796,3	40,672
796,6	43,549
796,8	43,421
797	44,715
797,2	45,861
797,5	46,51
797,7	47,272
797,9	46,061
798,1	46,351
798,3	53,11
798,6	53,272
798,8	54
799	54,958
799,2	56,361
799,5	56,961
799,7	57,568
799,9	55,558
800,1	53,348
800,3	53,329
800,6	53,001
800,8	53,464
801	53,913
801,2	52,865
801,5	53,234
801,7	52,71
801,9	51,85
802,1	53,589
802,3	53,581
802,6	53,08
802,8	51,281
803	52,771
803,2	53,133
803,4	51,466
803,7	51,232
803,9	50,681
804,1	49,983
804,3	48,927
804,6	48,916
804,8	50,587
805	48,75
805,2	39,344
805,4	37,896
805,7	36,927
805,9	35,388
806,1	35,097
806,3	34,664
806,5	33,925
806,8	32,967
807	34,547
807,2	34,46
807,4	33,694
807,6	31,454
807,9	30,04
808,1	30,632
808,3	30,349
808,5	33,129
808,8	33,83
809	31,141
809,2	31,963
809,4	32,148
809,6	32,412
809,9	30,945
810,1	29,606
810,3	29,61
810,5	29,157
810,7	26,849
811	25,367
811,2	24,824
811,4	24,07
811,6	23,002
811,8	23,108
812,1	23,61
812,3	23,583
812,5	22,523
812,7	22,026
812,9	22,041
813,2	23,025
813,4	21,335
813,6	21,845
813,8	20,125
814	18,726
814,3	18,503
814,5	20,295
814,7	19,8
814,9	17,145
815,2	15,874
815,4	13,925
815,6	13,136
815,8	13,038
816	11,59
816,3	11,997
816,5	11,077
816,7	11,945
816,9	11,835
817,1	11,616
817,4	10,474
817,6	11,315
817,8	10,851
818	10,24
818,2	9,667
818,5	8,878
818,7	7,826
818,9	6,736
819,1	8,139
819,3	9,018
819,6	10,511
819,8	11,586
820	9,029
820,2	9,044
820,4	8,875
820,7	9,429
820,9	10,941
821,1	12,092
821,3	11,239
821,5	12,642
821,8	14,637
822	14,132
822,2	14,95
822,4	14,166
822,6	14,441
822,9	14,4
823,1	13,053
823,3	13,657
823,5	12,107
823,7	13,574
823,9	12,235
824,2	11,76
824,4	11,447
824,6	12,77
824,8	12,148
825	12,88
825,3	12,895
825,5	14,385
825,7	15,256
825,9	13,046
826,1	12,009
826,4	11,65
826,6	8,792
826,8	8,648
827	9,542
827,2	9,848
827,5	10,085
827,7	10,281
827,9	9,667
828,1	10,583
828,3	10,063
828,6	10,334
828,8	10,557
829	8,939
829,2	8,969
829,4	10,523
829,6	10,609
829,9	11,171
830,1	10,76
830,3	11,266
830,5	10,998
830,7	11,488
831	12,001
831,2	12,182
831,4	10,5
831,6	10,79
831,8	10,119
832,1	10,674
832,3	10,112
832,5	9,934
832,7	9,882
832,9	10,304
833,1	10,726
833,4	11,892
833,6	14,139
833,8	15,69
834	15,493
834,2	16,372
834,5	15,03
834,7	12,793
834,9	11,945
835,1	11,277
835,3	9,783
835,5	9,131
835,8	9,516
836	10,56
836,2	8,878
836,4	9,04
836,6	8,55
836,9	7,988
837,1	7,234
837,3	6,695
837,5	5,68
837,7	5,344
837,9	4,345
838,2	7,072
838,4	7,117
838,6	8,939
838,8	8,377
839	7,407
839,3	8,279
839,5	9,655
839,7	8,969
839,9	7,63
840,1	7,543
840,3	8,026
840,6	5,548
840,8	6,864
841	5,608
841,2	6,351
841,4	7,932
841,7	8,554
841,9	9,04
842,1	9,497
842,3	9,761
842,5	9,9
842,7	10,149
843	10,112
843,2	9,489
843,4	12,001
843,6	12,786
843,8	14,321
844	14,132
844,3	14,479
844,5	14,92
844,7	14,792
844,9	13,691
845,1	13,449
845,4	11,119
845,6	11,835
845,8	13,74
846	12,344
846,2	10,971
846,4	12,11
846,7	12,774
846,9	12,774
847,1	11,835
847,3	12,891
847,5	11,288
847,7	10,858
848	9,689
848,2	9,312
848,4	9,395
848,6	8,784
848,8	7,969
849	7,811
849,3	7,268
849,5	6,483
849,7	6,566
849,9	4,881
850,1	1,675
850,3	3,07
850,6	2,418
850,8	1,822
851	1,083
851,2	0,212
851,4	0,37
851,6	-0,837
851,9	-0,516
852,1	1,52
852,3	-0,49
852,5	-1,67
852,7	-1,173
852,9	0,74
853,2	0,981
853,4	-0,075
853,6	-0,724
853,8	-2,383
854	-4,269
854,2	-2,632
854,5	-2,232
854,7	-2,032
854,9	-1,972
855,1	-2,327
855,3	-2,221
855,5	-0,252
855,8	-0,599
856	-1,678
856,2	-2,938
856,4	-1,497
856,6	-0,298
856,8	0,608
857,1	2,459
857,3	2,158
857,5	2,655
857,7	5,446
857,9	6,695
858,1	8,369
858,4	7,242
858,6	6,857
858,8	5,031
859	6,253
859,2	5,212
859,4	5,307
859,7	3,813
859,9	3,248
860,1	3,131
860,3	2,527
860,5	2,663
860,7	3,855
860,9	1,856
861,2	2,376
861,4	2,64
861,6	3,636
861,8	3,708
862	4,017
862,2	3,851
862,5	3,794
862,7	4,711
862,9	5,375
863,1	4,858
863,3	5,563
863,5	5,676
863,8	1,901
864	3,002
864,2	3,217
864,4	1,06
864,6	0,147
864,8	-1,105
865	-0,011
865,3	0,954
865,5	1,139
865,7	2,625
865,9	3,048
866,1	1,079
866,3	0,46
866,6	0,653
866,8	0,623
867	0,276
867,2	0,63
867,4	0,121
867,6	0,362
867,8	0,212
868,1	-0,181
868,3	-1,018
868,5	-1,403
868,7	-2,764
868,9	-3,839
869,1	-2,455
869,3	-2,078
869,6	-2,843
869,8	-2,798
870	-3,53
870,2	-3,337
870,4	-3,171
870,6	-3,782
870,9	-4,216
871,1	-4,933
871,3	-5,344
871,5	-5,713
871,7	-3,843
871,9	-5,182
872,1	-5,759
872,4	-8,142
872,6	-7,924
872,8	-5,498
873	-4,842
873,2	-5,642
873,4	-3,337
873,6	-2,3
873,9	-2,349
874,1	-2,519
874,3	-3,522
874,5	-4,748
874,7	-5,849
874,9	-5,985
875,1	-6,226
875,4	-6,158
875,6	-6,257
875,8	-6,189
876	-4,028
876,2	-3,119
876,4	-4,62
876,6	-3,994
876,9	-3,771
877,1	-3,002
877,3	-4,046
877,5	-5,389
877,7	-3,473
877,9	-2,108
878,1	-2,923
878,4	-4,148
878,6	-3,39
878,8	-2,681
879	-2,73
879,2	-2,006
879,4	-3,579
879,6	-2,772
879,9	-3,741
880,1	-4,307
880,3	-4,706
880,5	-4,02
880,7	-2,312
880,9	-1,388
881,1	-0,279
881,3	1,173
881,6	0,713
881,8	-0,554
882	0,091
882,2	2,176
882,4	2,32
882,6	-0,309
882,8	-0,377
883,1	0,057
883,3	-0,89
883,5	-1,848
883,7	-0,716
883,9	-1,173
884,1	-0,052
884,3	-2,41
884,6	-2,949
884,8	-0,69
885	-1,105
885,2	-1,523
885,4	-2,055
885,6	-1,026
885,8	-0,92
886	-0,218
886,3	-1,082
886,5	-0,411
886,7	-0,682
886,9	0,37
887,1	-0,151
887,3	-1,923
887,5	-1,029
887,8	-0,452
888	-1,908
888,2	-1,033
888,4	-0,547
888,6	-0,109
888,8	-2,066
889	-1,542
889,2	-2,319
889,5	-4,469
889,7	-3,764
889,9	-1,735
890,1	-2,225
890,3	-3,745
890,5	-2,806
890,7	-2,53
890,9	-1,784
891,2	-2,07
891,4	-2,659
891,6	-3,036
891,8	-2,576
892	-3,707
892,2	-4,552
892,4	-7,12
892,6	-7,218
892,9	-8,044
893,1	-6,973
893,3	-6,468
893,5	-7,354
893,7	-7,188
893,9	-6,373
894,1	-6,928
894,3	-7,637
894,6	-7,403
894,8	-7,644
895	-6,355
895,2	-6,155
895,4	-5,148
895,6	-7,482
895,8	-6,966
896	-4,661
896,3	-5,778
896,5	-7,286
896,7	-6,185
896,9	-5,589
897,1	-5,902
897,3	-6,438
897,5	-5,619
897,7	-5,404
898	-4,914
898,2	-5,615
898,4	-6,717
898,6	-5,487
898,8	-5,351
899	-3,782
899,2	-2,493
899,4	-1,471
899,6	-2,459
899,9	-3,715
900,1	-1,538
900,3	-1,263
900,5	-0,78
900,7	-0,577
900,9	-1,719
901,1	-0,66
901,3	-1,418
901,6	-2,504
901,8	-3,081
902	-5,751
902,2	-5,808
902,4	-5,77
902,6	-6,554
902,8	-7,448
903	-8,832
903,2	-9,986
903,5	-10,771
903,7	-11,314
903,9	-11,314
904,1	-11,823
904,3	-11,499
904,5	-12,544
904,7	-11,623
904,9	-10,579
905,1	-10,175
905,4	-9,183
905,6	-8,572
905,8	-10,605
906	-10,76
906,2	-10,349
906,4	-10,492
906,6	-12,238
906,8	-11,314
907	-11,861
907,3	-12,419
907,5	-12,6
907,7	-13,818
907,9	-12,031
908,1	-12,11
908,3	-13,041
908,5	-10,982
908,7	-10,586
908,9	-11,137
909,2	-11,917
909,4	-10,028
909,6	-8,983
909,8	-9,647
910	-10,179
910,2	-8,772
910,4	-9,738
910,6	-8,621
910,8	-10,503
911,1	-7,92
911,3	-6,215
911,5	-6,517
911,7	-6,724
911,9	-6,615
912,1	-6,988
912,3	-6,966
912,5	-6,211
912,7	-7,037
912,9	-6,668
913,2	-6,766
913,4	-8,825
913,6	-7,396
913,8	-7,633
914	-5,778
914,2	-5,563
914,4	-6,057
914,6	-6,283
914,8	-6,057
915,1	-5,687
915,3	-5,744
915,5	-4,288
915,7	-4,178
915,9	-4,473
916,1	-5,834
916,3	-5,344
916,5	-4,85
916,7	-4,59
916,9	-2,361
917,2	-3,737
917,4	-1,271
917,6	-4,801
917,8	-5,555
918	-7,558
918,2	-7,607
918,4	-9,134
918,6	-9,443
918,8	-9,843
919	-10,349
919,2	-8,086
919,5	-7,101
919,7	-8,599
919,9	-8,904
920,1	-9,99
920,3	-10,024
920,5	-10,164
920,7	-9,685
920,9	-11,868
921,1	-11,367
921,3	-11,571
921,6	-13,151
921,8	-13,4
922	-14,61
922,2	-15,663
922,4	-15,561
922,6	-15,172
922,8	-14,354
923	-14,697
923,2	-15,508
923,4	-17,759
923,6	-17,069
923,9	-17,876
924,1	-17,254
924,3	-18,834
924,5	-16,9
924,7	-17,454
924,9	-16,587
925,1	-16,232
925,3	-15,293
925,5	-15,678
925,7	-18,333
925,9	-19,475
926,2	-18,254
926,4	-17,903
926,6	-17,605
926,8	-18,397
927	-19,819
927,2	-18,793
927,4	-18,348
927,6	-19,464
927,8	-17,835
928	-17,767
928,2	-17,495
928,5	-17,416
928,7	-16,752
928,9	-16,421
929,1	-14,712
929,3	-14,192
929,5	-12,966
929,7	-13,694
929,9	-12,879
930,1	-14,109
930,3	-15,429
930,5	-13,799
930,8	-12,283
931	-12,264
931,2	-12,227
931,4	-11,933
931,6	-11,978
931,8	-11,439
932	-11,386
932,2	-12,136
932,4	-13,139
932,6	-13,999
932,8	-14,135
933	-15,647
933,3	-15,346
933,5	-15,233
933,7	-16,108
933,9	-16,228
934,1	-14,972
934,3	-14,95
934,5	-14,014
934,7	-14,312
934,9	-13,645
935,1	-13,155
935,3	-13,698
935,5	-15,233
935,7	-16,138
936	-16,643
936,2	-16,39
936,4	-16,198
936,6	-14,38
936,8	-14,467
937	-15,798
937,2	-17,277
937,4	-17,861
937,6	-17,699
937,8	-18,559
938	-20,731
938,2	-21,625
938,4	-20,471
938,7	-18,318
938,9	-18,076
939,1	-17,744
939,3	-16,56
939,5	-14,859
939,7	-14,852
939,9	-15,64
940,1	-15,504
940,3	-14,456
940,5	-14,109
940,7	-15,414
940,9	-14,935
941,1	-15,312
941,4	-16,677
941,6	-15,968
941,8	-16,307
942	-15,168
942,2	-15,153
942,4	-15,38
942,6	-13,452
942,8	-14,116
943	-15,021
943,2	-13,517
943,4	-13,943
943,6	-13,249
943,8	-13,63
944	-13,882
944,3	-13,769
944,5	-13,577
944,7	-11,687
944,9	-12,6
945,1	-12,264
945,3	-11,065
945,5	-9,477
945,7	-9,749
945,9	-11,386
946,1	-10,409
946,3	-10,997
946,5	-11,163
946,7	-11,872
946,9	-11,819
947,1	-11,092
947,4	-12,034
947,6	-12,766
947,8	-12,841
948	-14,256
948,2	-13,456
948,4	-14,64
948,6	-14,339
948,8	-14,022
949	-15,116
949,2	-13,947
949,4	-14,422
949,6	-15,908
949,8	-15,512
950	-15,968
950,2	-13,558
950,5	-13,287
950,7	-13,4
950,9	-12,502
951,1	-15,504
951,3	-13,622
951,5	-14,422
951,7	-16,99
951,9	-18,25
952,1	-18,386
952,3	-18,276
952,5	-18,687
952,7	-16,756
952,9	-16,583
953,1	-17,235
953,3	-18,216
953,5	-19,249
953,8	-18,789
954	-16,685
954,2	-16,903
954,4	-15,399
954,6	-17,039
954,8	-16,847
955	-16,556
955,2	-15,761
955,4	-16,375
955,6	-18,314
955,8	-16,568
956	-15,572
956,2	-15,259
956,4	-14,871
956,6	-16,862
956,8	-16,847
957	-16,888
957,2	-15,84
957,5	-15,255
957,7	-16,922
957,9	-17,435
958,1	-15,934
958,3	-16,632
958,5	-17,469
958,7	-16,534
958,9	-15,904
959,1	-16,534
959,3	-16,364
959,5	-16,213
959,7	-15,647
959,9	-15,21
960,1	-15,123
960,3	-15,108
960,5	-12,63
960,7	-12,544
960,9	-11,208
961,1	-11,118
961,4	-12,042
961,6	-14,388
961,8	-15,089
962	-14,12
962,2	-13,347
962,4	-15,61
962,6	-14,693
962,8	-15,542
963	-15,851
963,2	-16,794
963,4	-16,439
963,6	-17,71
963,8	-17,85
964	-19,822
964,2	-20,95
964,4	-20,056
964,6	-19,162
964,8	-17,782
965	-18,382
965,2	-20,041
965,5	-19,739
965,7	-19,012
965,9	-18,016
966,1	-18,695
966,3	-17,39
966,5	-15,225
966,7	-17,22
966,9	-17,846
967,1	-18,985
967,3	-19,061
967,5	-18,352
967,7	-18,567
967,9	-17,115
968,1	-14,954
968,3	-13,328
968,5	-15,082
968,7	-12,14
968,9	-11,801
969,1	-10,707
969,3	-9,096
969,5	-8,365
969,7	-7,916
969,9	-7,094
970,2	-5,766
970,4	-3,858
970,6	-2,809
970,8	-3,221
971	-1,976
971,2	-2,832
971,4	-2,779
971,6	-1,716
971,8	-1,176
972	-2,625
972,2	-1,248
972,4	-1,78
972,6	-3,918
972,8	-5,751
973	-4,891
973,2	-4,963
973,4	-5,253
973,6	-5,581
973,8	-5,811
974	-5,962
974,2	-6,162
974,4	-8,776
974,6	-9,206
974,8	-7,807
975	-8,712
975,2	-10,398
975,5	-11,725
975,7	-12,053
975,9	-10,865
976,1	-11,34
976,3	-12,2
976,5	-12,148
976,7	-12,611
976,9	-12,227
977,1	-13,377
977,3	-14,475
977,5	-15,813
977,7	-15,919
977,9	-15,123
978,1	-15,157
978,3	-14,312
978,5	-15,862
978,7	-14,904
978,9	-13,554
979,1	-13,313
979,3	-12,672
979,5	-13,158
979,7	-12,823
979,9	-12,479
980,1	-13,245
980,3	-12,77
980,5	-12,634
980,7	-11,129
980,9	-10,944
981,1	-12,306
981,3	-11,687
981,5	-10,861
981,7	-10,688
981,9	-11,408
982,2	-11,533
982,4	-11,985
982,6	-9,466
982,8	-11,005
983	-10,982
983,2	-10,579
983,4	-9,56
983,6	-9,134
983,8	-6,736
984	-6,053
984,2	-5,755
984,4	-6,717
984,6	-7,931
984,8	-7,595
985	-5,759
985,2	-4,348
985,4	-6,034
985,6	-7,795
985,8	-6,871
986	-5,295
986,2	-4,748
986,4	-5,227
986,6	-3,741
986,8	-4,548
987	-3,435
987,2	-4,05
987,4	-5,001
987,6	-4,688
987,8	-5,366
988	-5,008
988,2	-5,095
988,4	-5,393
988,6	-4,216
988,8	-6,898
989	-5,355
989,2	-6,223
989,4	-5,883
989,6	-6,456
989,8	-7,188
990	-6,826
990,2	-7,675
990,4	-9,519
990,6	-7,105
990,8	-5,83
991	-5,333
991,3	-6,943
991,5	-8,135
991,7	-8,87
991,9	-8,395
992,1	-9,7
992,3	-9,704
992,5	-9,738
992,7	-8,568
992,9	-9,304
993,1	-8,516
993,3	-9,851
993,5	-10,688
993,7	-8,719
993,9	-9,176
994,1	-9,805
994,3	-9,081
994,5	-7,973
994,7	-7,75
994,9	-7,218
995,1	-7,09
995,3	-7,343
995,5	-7,414
995,7	-8,172
995,9	-7,207
996,1	-7,233
996,3	-9,508
996,5	-9,545
996,7	-9,462
996,9	-11,291
997,1	-13,743
997,3	-15,5
997,5	-15,696
997,7	-16,496
997,9	-15,685
998,1	-13,132
998,3	-13
998,5	-13,773
998,7	-13,841
998,9	-12,977
999,1	-13,075
999,3	-13,087
999,5	-13,939
999,7	-14,874
999,9	-16,979
1000,1	-18,295
1000,3	-16,768
1000,5	-17,265
1000,7	-17,665
1000,9	-17,876
1001,1	-18,981
1001,3	-17,556
1001,5	-18,785
1001,7	-17,79
1001,9	-18,042
1002,1	-18,54
1002,3	-17,714
1002,5	-18,525
1002,7	-18,951
1002,9	-18,966
1003,1	-19,174
1003,3	-17,763
1003,5	-16,56
1003,7	-17,213
1003,9	-15,112
1004,1	-14,327
1004,3	-15,38
1004,5	-14,727
1004,7	-14,867
1004,9	-16,677
1005,1	-17,639
1005,3	-17,801
1005,5	-18,272
1005,7	-16,907
1005,9	-16,372
1006,1	-15,621
1006,3	-14,765
1006,5	-15,881
1006,7	-15,274
1006,9	-15,508
1007,1	-15,859
1007,3	-16,33
1007,5	-16,224
1007,7	-15,836
1007,9	-16,949
1008,1	-17,175
1008,3	-18,046
1008,5	-18,585
1008,7	-14,761
1008,9	-13,879
1009,1	-12,381
1009,3	-13,66
1009,5	-13,788
1009,7	-14,105
1009,9	-13,09
1010,1	-15,417
1010,3	-14,282
1010,5	-15,595
1010,7	-16,406
1010,9	-16,949
1011,1	-16,534
1011,3	-16,296
1011,5	-16,587
1011,7	-17,047
1011,9	-17,974
1012,1	-15,976
1012,3	-15,84
1012,5	-15,553
1012,7	-15,432
1012,9	-15,953
1013,1	-16,609
1013,3	-16,274
1013,5	-14,863
1013,7	-15,727
1013,9	-16,232
1014,1	-15,896
1014,3	-16,062
1014,5	-15,591
1014,7	-15,602
1014,9	-18,623
1015,1	-18,155
1015,3	-20,543
1015,5	-20,324
1015,7	-19,947
1015,9	-19,423
1016,1	-20,916
1016,3	-18,144
1016,5	-20,878
1016,7	-19,506
1016,9	-19,506
1017,1	-20,381
1017,3	-20,841
1017,5	-20,396
1017,7	-20,407
1017,9	-20,105
1018,1	-19,672
1018,3	-21,214
1018,5	-21,505
1018,7	-21,207
1018,9	-21,399
1019,1	-22,304
1019,2	-23,718
1019,4	-24,673
1019,6	-26,407
1019,8	-27,414
1020	-26,29
1020,2	-26,042
1020,4	-23,386
1020,6	-23,586
1020,8	-24,62
1021	-23,262
1021,2	-24,118
1021,4	-22,017
1021,6	-20,396
1021,8	-19,792
1022	-20,829
1022,2	-19,095
1022,4	-19,905
1022,6	-19,641
1022,8	-19,977
1023	-20,022
1023,2	-18,054
1023,4	-17,56
1023,6	-17,914
1023,8	-14,942
1024	-14,874
1024,2	-16,323
1024,4	-14,72
1024,6	-14,659
1024,8	-15,87
1025	-15,127
1025,2	-14,893
1025,4	-11,371
1025,6	-10,692
1025,8	-9,36
1026	-7,739
1026,2	-7,901
1026,4	-8,512
1026,6	-10,352
1026,8	-8,938
1027	-8,112
1027,2	-7,339
1027,4	-7,516
1027,6	-7,546
1027,8	-9,191
1028	-9,922
1028,1	-8,972
1028,3	-10,266
1028,5	-11,307
1028,7	-11,997
1028,9	-13,543
1029,1	-13,954
1029,3	-15,583
1029,5	-15,357
1029,7	-16,455
1029,9	-18,336
1030,1	-15,972
1030,3	-15,104
1030,5	-14,467
1030,7	-13,83
1030,9	-12,51
1031,1	-12,329
1031,3	-12,483
1031,5	-13,551
1031,7	-13,649
1031,9	-14,407
1032,1	-14,772
1032,3	-15,915
1032,5	-15,5
1032,7	-17,277
1032,9	-18,363
1033,1	-18,299
1033,3	-19,049
1033,5	-19,038
1033,7	-20,648
1033,9	-19,796
1034,1	-20,241
1034,3	-18,91
1034,4	-19,291
1034,6	-19,325
1034,8	-16,828
1035	-16,013
1035,2	-15,817
1035,4	-14,35
1035,6	-14,546
1035,8	-13,848
1036	-14,784
1036,2	-17,831
1036,4	-17,808
1036,6	-19,253
1036,8	-20,969
1037	-21,014
1037,2	-22,202
1037,4	-22,266
1037,6	-23,481
1037,8	-23,205
1038	-23,982
1038,2	-24,167
1038,4	-24,495
1038,6	-23,409
1038,8	-21,52
1039	-19,871
1039,2	-20,373
1039,4	-21,086
1039,5	-20,049
1039,7	-19,457
1039,9	-18,386
1040,1	-18,94
1040,3	-19,856
1040,5	-18,242
1040,7	-18,472
1040,9	-18,997
1041,1	-19,777
1041,3	-19,574
1041,5	-21,467
1041,7	-20,765
1041,9	-21,059
1042,1	-21,437
1042,3	-20,788
1042,5	-20,333
1042,7	-20,88
1042,9	-19,711
1043,1	-20,656
1043,3	-20,136
1043,5	-19,41
1043,7	-18,628
1043,8	-19,121
1044	-17,82
1044,2	-17,764
1044,4	-15,838
1044,6	-16,958
1044,8	-17,891
1045	-20,289
1045,2	-20,136
