Data from mesure_FLMT021711__26__48.txt Node

Date: Mon Nov 04 12:08:32 CET 2024
User: jordan.swietlicki
Spectrometer: FLMT02171
Trigger mode: 0
Integration Time (sec): 5,000000E-1
Scans to average: 30
Electric dark correction enabled: true
Nonlinearity correction enabled: false
Boxcar width: 30
XAxis mode: Wavelengths
Number of Pixels in Spectrum: 3648
>>>>>Begin Spectral Data<<<<<
194,7	-73,657
194,9	-76,739
195,2	-76,082
195,5	-74,247
195,7	-62,022
196	-61,062
196,2	-56,355
196,5	-51,77
196,8	-52,453
197	-46,419
197,3	-43,264
197,6	-35,141
197,8	-31,422
198,1	-24,001
198,4	-24,55
198,6	-23,046
198,9	-23,794
199,2	-19,861
199,4	-17,493
199,7	-17,513
200	-14,211
200,2	-11,467
200,5	-6,932
200,7	-6,259
201	-1,648
201,3	2,685
201,5	6,116
201,8	11,081
202,1	21,321
202,3	25,583
202,6	33,036
202,9	52,64
203,1	69,003
203,4	87,718
203,7	110,976
203,9	118,486
204,2	114,757
204,5	118,53
204,7	123,707
205	127,813
205,2	131,872
205,5	131,182
205,8	136,649
206	139,367
206,3	147,028
206,6	152,421
206,8	153,65
207,1	154,853
207,4	153,744
207,6	153,639
207,9	149,496
208,2	150,91
208,4	152,437
208,7	160,472
208,9	160,088
209,2	156,367
209,5	162,169
209,7	158,305
210	165,207
210,3	161,362
210,5	161,597
210,8	163,527
211,1	169,369
211,3	177,308
211,6	184,121
211,9	179,39
212,1	185,252
212,4	188,428
212,6	190,412
212,9	195,062
213,2	196,628
213,4	196,937
213,7	193,375
214	189,61
214,2	187,749
214,5	192,005
214,8	190,669
215	193,065
215,3	195,442
215,5	198,136
215,8	201,028
216,1	199,589
216,3	202,76
216,6	202,418
216,9	201,771
217,1	199,489
217,4	194,452
217,7	194,825
217,9	195,535
218,2	188,173
218,5	184,318
218,7	184,889
219	179,789
219,2	179,089
219,5	177,102
219,8	177,454
220	170,995
220,3	172,189
220,6	171,953
220,8	172,768
221,1	172,43
221,4	172,711
221,6	173,832
221,9	171,89
222,1	174,878
222,4	168,486
222,7	164,199
222,9	165,477
223,2	168,27
223,5	167,195
223,7	168,94
224	167,471
224,2	167,029
224,5	164,998
224,8	162,93
225	161,495
225,3	166,893
225,6	171,525
225,8	169,844
226,1	167,55
226,4	167,492
226,6	165,587
226,9	164,615
227,1	164,949
227,4	157,974
227,7	163,781
227,9	167,418
228,2	165,829
228,5	162,592
228,7	161,921
229	162,371
229,3	157,513
229,5	157,184
229,8	159,576
230	162,894
230,3	160,287
230,6	160,434
230,8	168,84
231,1	169,1
231,4	166,14
231,6	164,955
231,9	165,106
232,1	169,538
232,4	164,736
232,7	167,338
232,9	170,544
233,2	173,451
233,5	177,271
233,7	170,749
234	165,873
234,2	162,87
234,5	166,695
234,8	159,927
235	165,79
235,3	167,744
235,6	171,758
235,8	167,158
236,1	168,825
236,4	174,973
236,6	171,492
236,9	170,377
237,1	171,069
237,4	167,772
237,7	165,358
237,9	159,741
238,2	158,229
238,5	164,791
238,7	165,988
239	170,942
239,2	168,477
239,5	169,348
239,8	169,727
240	168,415
240,3	170,766
240,6	171,098
240,8	176,324
241,1	181,688
241,3	185,535
241,6	176,997
241,9	176,007
242,1	172,919
242,4	171,666
242,7	173,743
242,9	175,301
243,2	177,532
243,4	181,991
243,7	178,244
244	175,611
244,2	174,222
244,5	172,833
244,8	172,803
245	170,801
245,3	175,105
245,5	175,142
245,8	173,231
246,1	168,041
246,3	170,327
246,6	167,974
246,9	167,457
247,1	167,762
247,4	169,789
247,6	173,735
247,9	173,695
248,2	167,028
248,4	164,22
248,7	159,735
248,9	159,902
249,2	156,408
249,5	154,046
249,7	160,016
250	164,285
250,3	167,427
250,5	162,914
250,8	164,955
251	167,551
251,3	174,017
251,6	171,629
251,8	173,359
252,1	175,671
252,4	169,924
252,6	169,163
252,9	168,852
253,1	169,197
253,4	170,974
253,7	176,159
253,9	181,151
254,2	180,387
254,4	179,679
254,7	182,116
255	179,458
255,2	179,811
255,5	177,255
255,8	174,536
256	174,066
256,3	174,105
256,5	175,497
256,8	169,119
257,1	166,032
257,3	159,163
257,6	159,687
257,8	160,05
258,1	166,455
258,4	170,357
258,6	165,423
258,9	161,123
259,2	158,572
259,4	157,321
259,7	151,868
259,9	152,79
260,2	152,198
260,5	159,994
260,7	159,039
261	158,165
261,2	158,688
261,5	158,919
261,8	162,752
262	165,908
262,3	168,235
262,6	170,076
262,8	160,414
263,1	156,653
263,3	155,128
263,6	153,909
263,9	156,266
264,1	159,274
264,4	163,066
264,6	159,741
264,9	162,738
265,2	160,21
265,4	157,769
265,7	155,32
266	151,789
266,2	148,611
266,5	153,145
266,7	151,497
267	145,612
267,3	138,995
267,5	134,954
267,8	128,5
268	125,724
268,3	128,775
268,6	130,512
268,8	134,12
269,1	133,953
269,3	138,084
269,6	140,364
269,9	137,545
270,1	137,883
270,4	132,78
270,6	131,66
270,9	134,609
271,2	137,937
271,4	143,38
271,7	147,938
272	151,29
272,2	149,044
272,5	149,115
272,7	150,403
273	151,989
273,3	156,492
273,5	154,526
273,8	161,875
274	157,536
274,3	157,115
274,6	164,852
274,8	165,872
275,1	163,541
275,3	161,141
275,6	160,476
275,9	160,432
276,1	163,121
276,4	154,364
276,6	153,136
276,9	156,685
277,2	154,264
277,4	161,04
277,7	158,707
277,9	164,855
278,2	162,536
278,5	157,744
278,7	166,02
279	171,97
279,2	170,552
279,5	166,423
279,8	164,119
280	163,93
280,3	167,344
280,5	168,165
280,8	160,481
281,1	162,522
281,3	165,274
281,6	168,775
281,9	170,875
282,1	185,862
282,4	187,431
282,6	187,386
282,9	189,918
283,2	193,455
283,4	197,751
283,7	199,263
283,9	202,213
284,2	194,904
284,5	194,081
284,7	197,013
285	197,598
285,2	194,152
285,5	188,512
285,8	193,411
286	191,501
286,3	198,895
286,5	200,377
286,8	192,788
287,1	188,065
287,3	185,509
287,6	191,371
287,8	194,37
288,1	197,417
288,4	196,389
288,6	199,019
288,9	199,393
289,1	193,398
289,4	196,906
289,7	196,95
289,9	197,412
290,2	201,878
290,4	195,187
290,7	196,569
290,9	199,362
291,2	203,157
291,5	203,223
291,7	202,126
292	202,14
292,2	201,803
292,5	203,544
292,8	198,472
293	200,166
293,3	189,324
293,5	190,537
293,8	187,487
294,1	189,342
294,3	194,862
294,6	195,289
294,8	197,477
295,1	201
295,4	202,809
295,6	201,058
295,9	205,21
296,1	205,223
296,4	208,844
296,7	214,53
296,9	213,569
297,2	218,46
297,4	220,394
297,7	217,839
298	200,524
298,2	196,488
298,5	197,383
298,7	196,888
299	196,875
299,3	194,841
299,5	200,764
299,8	201,564
300	201,914
300,3	201,179
300,5	194,666
300,8	195,557
301,1	193,437
301,3	199,362
301,6	199,344
301,8	199,902
302,1	199,434
302,4	201,805
302,6	206,762
302,9	209,906
303,1	205,268
303,4	200,496
303,7	199,167
303,9	194,259
304,2	193,537
304,4	193,821
304,7	190,909
304,9	193,947
305,2	196,981
305,5	196,209
305,7	193,918
306	192,676
306,2	194,621
306,5	196,265
306,8	197,778
307	194,24
307,3	195,084
307,5	198,034
307,8	199,658
308,1	201,888
308,3	203,098
308,6	205,876
308,8	207,18
309,1	209,338
309,3	211,299
309,6	212,511
309,9	208,344
310,1	207,178
310,4	204,568
310,6	205,087
310,9	207,871
311,2	208,976
311,4	209,018
311,7	203,401
311,9	199,4
312,2	199,105
312,5	197,599
312,7	202,05
313	198,324
313,2	195,898
313,5	197,584
313,7	201,306
314	202,745
314,3	202,289
314,5	206,048
314,8	205,404
315	207,971
315,3	204,863
315,6	203,851
315,8	208,752
316,1	212,171
316,3	215,155
316,6	216,787
316,8	223,433
317,1	220,139
317,4	218,695
317,6	227,774
317,9	228,13
318,1	232,614
318,4	232,712
318,6	241,048
318,9	247,82
319,2	250,467
319,4	257,575
319,7	267,617
319,9	276,641
320,2	281,147
320,5	291,804
320,7	297,511
321	302,907
321,2	302,549
321,5	315,583
321,7	324,502
322	334,817
322,3	347,69
322,5	356,851
322,8	370,158
323	383,598
323,3	394,286
323,5	405,475
323,8	422,759
324,1	439,492
324,3	457,124
324,6	470,66
324,8	500,701
325,1	515,398
325,4	534,171
325,6	557,01
325,9	579,338
326,1	603,32
326,4	625,105
326,6	648,989
326,9	671,824
327,2	704,027
327,4	733,099
327,7	765,906
327,9	793,109
328,2	823,03
328,4	848,274
328,7	879,029
329	907,413
329,2	939,754
329,5	978,919
329,7	1013,946
330	1052,573
330,2	1087,135
330,5	1126,213
330,8	1167,016
331	1209,435
331,3	1254,676
331,5	1300,456
331,8	1353,202
332	1401,88
332,3	1450,524
332,6	1506,854
332,8	1566,388
333,1	1630,169
333,3	1683,837
333,6	1744,42
333,8	1800,474
334,1	1860,354
334,4	1921,879
334,6	1989,556
334,9	2060,45
335,1	2132,54
335,4	2206,611
335,6	2276,2
335,9	2344,295
336,2	2413,238
336,4	2479,638
336,7	2543,3
336,9	2617,506
337,2	2684,546
337,4	2753,317
337,7	2829,67
338	2902,827
338,2	2977,38
338,5	3054,767
338,7	3137,09
339	3219,792
339,2	3303,24
339,5	3386,64
339,8	3464,54
340	3546,487
340,3	3631,988
340,5	3704,972
340,8	3791,844
341	3876,014
341,3	3961,06
341,6	4045,952
341,8	4130,443
342,1	4220,344
342,3	4312,015
342,6	4411,411
342,8	4511,101
343,1	4622,276
343,4	4725,962
343,6	4834,19
343,9	4938,83
344,1	5042,527
344,4	5146,608
344,6	5252,823
344,9	5367,05
345,1	5464,886
345,4	5571,144
345,7	5681,465
345,9	5800,936
346,2	5921,92
346,4	6046,342
346,7	6178,842
346,9	6304,64
347,2	6432,612
347,5	6555,376
347,7	6675,457
348	6795,559
348,2	6907,043
348,5	7014,295
348,7	7115,991
349	7212,65
349,2	7299,469
349,5	7387,516
349,8	7472,051
350	7549,755
350,3	7621,118
350,5	7687,773
350,8	7747,239
351	7803,941
351,3	7878,374
351,6	7967,875
351,8	8068,999
352,1	8185,554
352,3	8311,378
352,6	8430,833
352,8	8543,472
353,1	8654,825
353,3	8755,771
353,6	8852,738
353,9	8946,401
354,1	9047,482
354,4	9137,548
354,6	9241,62
354,9	9343,637
355,1	9454,14
355,4	9571,796
355,6	9686,137
355,9	9808,755
356,2	9928,858
356,4	10052,919
356,7	10168,353
356,9	10289,895
357,2	10417,935
357,4	10539,03
357,7	10668,449
358	10805,206
358,2	10952,518
358,5	11096,96
358,7	11245,308
359	11397,179
359,2	11547,121
359,5	11694,653
359,7	11848,414
360	11997,974
360,3	12133,243
360,5	12260,634
360,8	12396,648
361	12529,63
361,3	12660,794
361,5	12793,063
361,8	12925,542
362	13064,371
362,3	13192,314
362,6	13320,64
362,8	13443,857
363,1	13562,681
363,3	13687,177
363,6	13821,648
363,8	13946,847
364,1	14075,397
364,3	14198,525
364,6	14322,38
364,8	14455,288
365,1	14587,579
365,4	14703,319
365,6	14816,177
365,9	14934,73
366,1	15041,371
366,4	15148,638
366,6	15255,162
366,9	15355,226
367,1	15449,355
367,4	15527,104
367,7	15604,735
367,9	15686,866
368,2	15775,506
368,4	15878,169
368,7	15979,338
368,9	16082,513
369,2	16192,241
369,4	16324,658
369,7	16460,98
370	16615,836
370,2	16766,158
370,5	16924,492
370,7	17075,334
371	17225,777
371,2	17356,122
371,5	17460,013
371,7	17550,215
372	17628,283
372,2	17715,439
372,5	17793,575
372,8	17873,4
373	17961,465
373,3	18044,743
373,5	18107,596
373,8	18147,045
374	18176,54
374,3	18178,135
374,5	18154,335
374,8	18117,245
375	18068,619
375,3	18007,789
375,6	17937,034
375,8	17870,768
376,1	17798,779
376,3	17746,91
376,6	17710,57
376,8	17684,763
377,1	17660,064
377,3	17657,209
377,6	17646,281
377,8	17636,745
378,1	17625,616
378,4	17616,123
378,6	17612,451
378,9	17609,133
379,1	17594,517
379,4	17600,012
379,6	17608,089
379,9	17620,638
380,1	17630,803
380,4	17650,344
380,6	17659,34
380,9	17695,162
381,2	17745,219
381,4	17796,009
381,7	17870,606
381,9	17970,39
382,2	18087,771
382,4	18194,542
382,7	18301,499
382,9	18425,974
383,2	18548,314
383,4	18657,941
383,7	18776,518
383,9	18885,202
384,2	18989,102
384,5	19087,994
384,7	19152,673
385	19177,059
385,2	19150,312
385,5	19070,673
385,7	18955,575
386	18828,357
386,2	18695,355
386,5	18577,742
386,7	18511,64
387	18498,829
387,2	18524,181
387,5	18576,966
387,8	18653,866
388	18731,089
388,3	18798,811
388,5	18836,332
388,8	18827,93
389	18802,47
389,3	18767,873
389,5	18733,839
389,8	18731,098
390	18779,176
390,3	18884,826
390,5	19034,383
390,8	19239,16
391,1	19467,949
391,3	19746,677
391,6	20028,307
391,8	20314,336
392,1	20592,287
392,3	20849,057
392,6	21102,282
392,8	21344,392
393,1	21582,541
393,3	21815,542
393,6	22059,217
393,8	22315,034
394,1	22576,201
394,4	22846,671
394,6	23102,43
394,9	23358,994
395,1	23608,704
395,4	23862,94
395,6	24122,794
395,9	24365,982
396,1	24624,425
396,4	24871,831
396,6	25104,435
396,9	25332,203
397,1	25550,043
397,4	25743,84
397,6	25917,145
397,9	26087,043
398,2	26263,697
398,4	26408,969
398,7	26543,034
398,9	26665,173
399,2	26788,601
399,4	26912,163
399,7	27053,762
399,9	27193,751
400,2	27366,617
400,4	27566,872
400,7	27830,779
400,9	28131,163
401,2	28459,859
401,4	28804,32
401,7	29151,084
401,9	29461,009
402,2	29742,784
402,5	29955,919
402,7	30147,079
403	30311,792
403,2	30475,75
403,5	30639,115
403,7	30823,275
404	31045,315
404,2	31304,176
404,5	31588,008
404,7	31914,485
405	32225,924
405,2	32536,901
405,5	32797,725
405,7	33033,648
406	33226,618
406,2	33371,58
406,5	33516,289
406,7	33625,185
407	33716,52
407,3	33778,689
407,5	33838,747
407,8	33900,189
408	33948,79
408,3	33980,02
408,5	34028,248
408,8	34084,431
409	34148,883
409,3	34168,705
409,5	34196,608
409,8	34195,902
410	34212,552
410,3	34210,65
410,5	34209,164
410,8	34206,206
411	34197,454
411,3	34207,414
411,5	34219,883
411,8	34224,132
412	34240,524
412,3	34258,47
412,6	34249,012
412,8	34269,913
413,1	34291,174
413,3	34341,305
413,6	34361,826
413,8	34409,428
414,1	34465,026
414,3	34525,69
414,6	34565,927
414,8	34598,676
415,1	34612,794
415,3	34639,535
415,6	34643,194
415,8	34658,049
416,1	34648,588
416,3	34641,413
416,6	34637,041
416,8	34628,144
417,1	34600,099
417,3	34591,901
417,6	34593,045
417,8	34613,032
418,1	34635,422
418,4	34661,374
418,6	34667,008
418,9	34677,976
419,1	34649,564
419,4	34623,745
419,6	34609,39
419,9	34562,713
420,1	34499,802
420,4	34452,98
420,6	34379,033
420,9	34347,844
421,1	34291,22
421,4	34247,178
421,6	34192,192
421,9	34109,361
422,1	34004,896
422,4	33905,106
422,6	33797,513
422,9	33658,474
423,1	33500,937
423,4	33363,682
423,6	33249,658
423,9	33144,583
424,1	33051,109
424,4	32984,762
424,6	32953,221
424,9	32917,089
425,1	32923,621
425,4	32911,551
425,6	32936,493
425,9	32940,024
426,2	32935,516
426,4	32936,932
426,7	32910,199
426,9	32893,758
427,2	32900,329
427,4	32887,666
427,7	32898,067
427,9	32933,901
428,2	32955,203
428,4	33002,682
428,7	33032,764
428,9	33082,561
429,2	33128,67
429,4	33160,706
429,7	33186,431
429,9	33229,065
430,2	33262,311
430,4	33277,316
430,7	33294,693
430,9	33315,514
431,2	33321,059
431,4	33315,276
431,7	33328,015
431,9	33350,742
432,2	33371,543
432,4	33401,028
432,7	33432,619
432,9	33465,26
433,2	33514,345
433,4	33552,094
433,7	33599,361
433,9	33652,792
434,2	33735,495
434,4	33807,94
434,7	33882,493
434,9	33950,602
435,2	34054,997
435,4	34142,277
435,7	34230,073
435,9	34340,564
436,2	34420,098
436,4	34508,118
436,7	34614,177
436,9	34734,228
437,2	34860,85
437,4	35011,578
437,7	35157,952
437,9	35311,393
438,2	35483,853
438,4	35680,212
438,7	35850,82
438,9	36015,701
439,2	36158,699
439,4	36305,416
439,7	36402,263
439,9	36492,043
440,2	36592,019
440,5	36679,863
440,7	36776,129
441	36857,638
441,2	36951,031
441,5	37035,534
441,7	37149,639
442	37292,6
442,2	37398,834
442,5	37510,969
442,7	37644,389
443	37766,884
443,2	37890,288
443,5	37998,331
443,7	38089,175
444	38146,371
444,2	38231,764
444,5	38310,387
444,7	38394,254
445	38470,901
445,2	38522,019
445,5	38572,045
445,7	38657,272
446	38733,031
446,2	38834,931
446,5	38942,79
446,7	39071,237
447	39185,563
447,2	39268,529
447,5	39356,155
447,7	39456,914
448	39546,801
448,2	39645,93
448,5	39745,619
448,7	39864,814
449	39957,611
449,2	40068,23
449,5	40146,999
449,7	40259,538
450	40364,341
450,2	40442,819
450,5	40509,168
450,7	40593,752
451	40684,585
451,2	40762,642
451,5	40851,661
451,7	40937,764
452	41022,47
452,2	41071,696
452,5	41158,696
452,7	41223,384
452,9	41325,698
453,2	41423,492
453,4	41530,377
453,7	41653,198
453,9	41792,877
454,2	41912,978
454,4	42027,31
454,7	42126,193
454,9	42244,816
455,2	42354,185
455,4	42446,583
455,7	42542,248
455,9	42636,541
456,2	42704,642
456,4	42803,726
456,7	42902,444
456,9	42991,259
457,2	43053,748
457,4	43121,149
457,7	43165,333
457,9	43236,126
458,2	43293,923
458,4	43347,36
458,7	43381,934
458,9	43414,763
459,2	43464,964
459,4	43487,99
459,7	43511,691
459,9	43570,469
460,2	43616,829
460,4	43701,102
460,7	43780,949
460,9	43856,836
461,2	43941,678
461,4	44028,076
461,7	44095,106
461,9	44171,141
462,2	44226,261
462,4	44290,52
462,7	44350,535
462,9	44402,099
463,2	44452,955
463,4	44482,379
463,7	44513,111
463,9	44544,942
464,2	44587,711
464,4	44630,804
464,7	44656,809
464,9	44686,688
465,2	44711,082
465,4	44760,795
465,7	44823,942
465,9	44868,424
466,2	44914,602
466,4	44979,298
466,6	45034,32
466,9	45092,79
467,1	45140,828
467,4	45242,443
467,6	45294,285
467,9	45379,598
468,1	45445,004
468,4	45511,189
468,6	45581,8
468,9	45625,4
469,1	45662,008
469,4	45716,625
469,6	45776,708
469,9	45842,435
470,1	45901,875
470,4	45980,883
470,6	46048,417
470,9	46116,735
471,1	46195,049
471,4	46284,517
471,6	46356,191
471,9	46459,773
472,1	46545,583
472,4	46653,095
472,6	46771,379
472,9	46896,727
473,1	46995,227
473,4	47099,048
473,6	47214,16
473,9	47354,015
474,1	47492,069
474,3	47640,044
474,6	47793,795
474,8	47943,825
475,1	48064,829
475,3	48214,958
475,6	48342,162
475,8	48495,316
476,1	48649,707
476,3	48795,747
476,6	48922,153
476,8	49065,912
477,1	49186,872
477,3	49321,285
477,6	49463,514
477,8	49588,246
478,1	49703,051
478,3	49813,835
478,6	49902,779
478,8	49976,991
479,1	50030,436
479,3	50102,83
479,6	50149,718
479,8	50232,072
480,1	50320,731
480,3	50402,938
480,5	50496,409
480,8	50591,125
481	50709,331
481,3	50824,288
481,5	50915,893
481,8	51030,217
482	51158,214
482,3	51284,547
482,5	51395,139
482,8	51532,389
483	51657,118
483,3	51774,699
483,5	51903,827
483,8	52020,095
484	52152,847
484,3	52273,501
484,5	52378,033
484,8	52479,727
485	52570,715
485,2	52662,537
485,5	52751,204
485,7	52843,88
486	52926,891
486,2	53005,855
486,5	53086,924
486,7	53181,679
487	53258,607
487,2	53345,171
487,5	53424,395
487,7	53500,373
488	53586,418
488,2	53654,754
488,5	53721,507
488,7	53781,732
489	53838,449
489,2	53893,909
489,5	53954,434
489,7	53998,215
489,9	54046,342
490,2	54091,188
490,4	54137,35
490,7	54180,373
490,9	54212,003
491,2	54234,703
491,4	54261,404
491,7	54298,746
491,9	54332,628
492,2	54371,712
492,4	54407,8
492,7	54441,45
492,9	54485,956
493,2	54548,171
493,4	54609,415
493,6	54687,537
493,9	54770,748
494,1	54861,647
494,4	54934,782
494,6	55008,34
494,9	55058,339
495,1	55102,646
495,4	55151,346
495,6	55186,81
495,9	55218,503
496,1	55229,845
496,4	55229,784
496,6	55241,989
496,9	55239,522
497,1	55222,527
497,3	55207,636
497,6	55189,124
497,8	55167,633
498,1	55148,21
498,3	55141,561
498,6	55129,736
498,8	55125,336
499,1	55114,886
499,3	55119,18
499,6	55119,421
499,8	55115,211
500,1	55114,57
500,3	55101,673
500,6	55085,528
500,8	55064,728
501	55049,179
501,3	55026,931
501,5	55015,737
501,8	54988,613
502	54965,07
502,3	54932,491
502,5	54900,212
502,8	54866,55
503	54824,597
503,3	54790,979
503,5	54767,279
503,8	54729,674
504	54703,599
504,2	54676,118
504,5	54647,94
504,7	54615,524
505	54583,862
505,2	54547,377
505,5	54508,746
505,7	54472,317
506	54440,221
506,2	54409,411
506,5	54367,194
506,7	54318,022
506,9	54272,723
507,2	54220,729
507,4	54173,176
507,7	54132,942
507,9	54093,934
508,2	54048,192
508,4	54015,917
508,7	53982,834
508,9	53944,244
509,2	53888,52
509,4	53819,147
509,7	53735,819
509,9	53647,365
510,1	53560,015
510,4	53459,193
510,6	53355,835
510,9	53260,515
511,1	53164,081
511,4	53078,93
511,6	52999,951
511,9	52935,18
512,1	52876,05
512,4	52824,087
512,6	52772,432
512,8	52717,605
513,1	52662,272
513,3	52599,843
513,6	52546,196
513,8	52492,146
514,1	52439,882
514,3	52388,075
514,6	52339,68
514,8	52297,298
515,1	52251,659
515,3	52207,389
515,5	52158,657
515,8	52114,073
516	52061,239
516,3	52031,937
516,5	51982,004
516,8	51947,021
517	51914,384
517,3	51877,687
517,5	51838,342
517,7	51810,066
518	51783,111
518,2	51745,404
518,5	51696,531
518,7	51653,706
519	51582,737
519,2	51502,343
519,5	51411,597
519,7	51325,987
520	51233,339
520,2	51150,119
520,4	51073,5
520,7	50993,632
520,9	50935,496
521,2	50881,696
521,4	50847,662
521,7	50818,776
521,9	50797,037
522,2	50776,391
522,4	50753,943
522,6	50725,413
522,9	50696,816
523,1	50672,75
523,4	50660,919
523,6	50641,678
523,9	50641,607
524,1	50659,171
524,4	50687,275
524,6	50730,014
524,8	50771,817
525,1	50787,782
525,3	50814,069
525,6	50845,243
525,8	50848,035
526,1	50874,456
526,3	50898,119
526,6	50905,721
526,8	50898,264
527	50892,388
527,3	50872,934
527,5	50858,602
527,8	50846,942
528	50829,233
528,3	50813,427
528,5	50804,093
528,8	50783,484
529	50757,476
529,2	50719,596
529,5	50686,896
529,7	50648,918
530	50603,856
530,2	50565,482
530,5	50533,181
530,7	50509,1
531	50490,387
531,2	50439,457
531,4	50399,555
531,7	50346,928
531,9	50289,959
532,2	50228,682
532,4	50169,142
532,7	50091,879
532,9	50015,319
533,2	49938,673
533,4	49860,029
533,6	49785,174
533,9	49726,328
534,1	49678,015
534,4	49637,918
534,6	49600,122
534,9	49574,86
535,1	49540,536
535,3	49497,613
535,6	49466,68
535,8	49417,758
536,1	49365,557
536,3	49304,702
536,6	49246,442
536,8	49167,072
537,1	49101,164
537,3	49030,686
537,5	48961,119
537,8	48896,602
538	48837,563
538,3	48756,4
538,5	48679,444
538,8	48592,956
539	48512,895
539,2	48438,676
539,5	48360,682
539,7	48294,598
540	48236,069
540,2	48175,312
540,5	48107,425
540,7	48057,858
540,9	47984,92
541,2	47922,222
541,4	47861,484
541,7	47808,167
541,9	47747,443
542,2	47690,294
542,4	47622,093
542,7	47553,169
542,9	47480,934
543,1	47405,132
543,4	47323,56
543,6	47243,151
543,9	47160,985
544,1	47094,487
544,4	47022,946
544,6	46959,088
544,8	46895,748
545,1	46834,989
545,3	46767
545,6	46704,586
545,8	46616,114
546,1	46547,944
546,3	46474,791
546,5	46406,581
546,8	46333,203
547	46277,646
547,3	46209,425
547,5	46169,61
547,8	46121,096
548	46080,715
548,2	46044,255
548,5	46007,619
548,7	45963,491
549	45911,932
549,2	45864,47
549,5	45813,422
549,7	45749,271
549,9	45689,262
550,2	45630,687
550,4	45564,658
550,7	45493,156
550,9	45418,514
551,2	45330,256
551,4	45243,305
551,6	45158,883
551,9	45062,615
552,1	44965,804
552,4	44872,125
552,6	44765,664
552,9	44662,71
553,1	44566,3
553,3	44482,588
553,6	44396,382
553,8	44313,369
554,1	44226,196
554,3	44139,459
554,5	44046,95
554,8	43967,164
555	43880,994
555,3	43803,328
555,5	43726,562
555,8	43656,048
556	43575,986
556,2	43502,988
556,5	43417,069
556,7	43338,689
557	43254,319
557,2	43176,476
557,5	43089,05
557,7	43010,832
557,9	42926,772
558,2	42838,571
558,4	42744,332
558,7	42660,891
558,9	42566,908
559,2	42481,673
559,4	42391,093
559,6	42310,527
559,9	42227,753
560,1	42151,841
560,4	42062,512
560,6	41994,436
560,8	41920,92
561,1	41854,208
561,3	41778,219
561,6	41701,841
561,8	41615,275
562,1	41549,335
562,3	41463,418
562,5	41384,378
562,8	41302,536
563	41220,527
563,3	41145,78
563,5	41068,614
563,7	40994,886
564	40918,406
564,2	40850,44
564,5	40791,363
564,7	40733,124
565	40682,372
565,2	40627,215
565,4	40580,977
565,7	40533,233
565,9	40502,775
566,2	40465,928
566,4	40434,801
566,6	40408,882
566,9	40385,454
567,1	40352,479
567,4	40328,258
567,6	40288,264
567,9	40243,932
568,1	40195,162
568,3	40147,594
568,6	40079,99
568,8	40027,166
569,1	39964,261
569,3	39909,016
569,5	39845,962
569,8	39787,618
570	39724,924
570,3	39656,11
570,5	39587,045
570,7	39507,36
571	39437,166
571,2	39360,459
571,5	39277,883
571,7	39198,258
572	39120,56
572,2	39047,841
572,4	38965,726
572,7	38890,754
572,9	38824,639
573,2	38767,766
573,4	38702,065
573,6	38641,568
573,9	38571,094
574,1	38511,013
574,4	38443,549
574,6	38376,038
574,8	38306,633
575,1	38244,083
575,3	38178,099
575,6	38110,783
575,8	38038,883
576	37968,743
576,3	37910,224
576,5	37851,881
576,8	37782,744
577	37722,996
577,3	37663,263
577,5	37594,929
577,7	37526,657
578	37445,6
578,2	37373,322
578,5	37302,352
578,7	37226,014
578,9	37143,928
579,2	37058,581
579,4	36975,666
579,7	36885,597
579,9	36787,505
580,1	36696,484
580,4	36601,499
580,6	36493,39
580,9	36383,87
581,1	36264,609
581,3	36128,678
581,6	35985,937
581,8	35838,462
582,1	35670,143
582,3	35505,077
582,5	35344,79
582,8	35178,922
583	35023,195
583,3	34878,345
583,5	34723,065
583,7	34587,742
584	34450,106
584,2	34318,129
584,5	34195,372
584,7	34065,656
584,9	33943,808
585,2	33823,485
585,4	33718,924
585,7	33605,899
585,9	33510,275
586,1	33421,622
586,4	33325,664
586,6	33232,419
586,9	33135,842
587,1	33036,461
587,3	32940,811
587,6	32827,394
587,8	32725,243
588,1	32630,138
588,3	32535,21
588,5	32445,242
588,8	32349,733
589	32258,876
589,3	32171,597
589,5	32089,115
589,7	32003,347
590	31919,572
590,2	31838,522
590,5	31767,089
590,7	31694,977
590,9	31615,734
591,2	31541,868
591,4	31477,508
591,7	31406,847
591,9	31344,263
592,1	31295,517
592,4	31243,241
592,6	31202,741
592,9	31171,934
593,1	31134,769
593,3	31103,45
593,6	31074,081
593,8	31048,993
594,1	31020,328
594,3	30993,022
594,5	30977,501
594,8	30953,1
595	30936,846
595,3	30925,838
595,5	30922,702
595,7	30935,127
596	30955,872
596,2	30993,517
596,4	31045,932
596,7	31114,895
596,9	31182,187
597,2	31258,198
597,4	31338,805
597,6	31402,727
597,9	31470,802
598,1	31533,433
598,4	31589,474
598,6	31642,214
598,8	31686,932
599,1	31722,046
599,3	31768,976
599,6	31809,935
599,8	31846,386
600	31874,823
600,3	31896,135
600,5	31914,627
600,7	31924,745
601	31931,868
601,2	31932,481
601,5	31939,637
601,7	31942,152
601,9	31943,483
602,2	31944,83
602,4	31946,833
602,7	31934,098
602,9	31918,375
603,1	31893,999
603,4	31866,223
603,6	31832,19
603,9	31793,996
604,1	31755,691
604,3	31710,166
604,6	31663,696
604,8	31615,897
605	31555,715
605,3	31496,029
605,5	31435,453
605,8	31369,499
606	31294,792
606,2	31224,67
606,5	31135,557
606,7	31038,731
607	30945,524
607,2	30850,506
607,4	30740,561
607,7	30643,967
607,9	30541,987
608,1	30439,491
608,4	30332,096
608,6	30222,902
608,9	30112,361
609,1	29993,057
609,3	29877,709
609,6	29752,115
609,8	29633,655
610,1	29506,211
610,3	29378,91
610,5	29246,856
610,8	29118,54
611	28986,663
611,2	28856,522
611,5	28730,708
611,7	28600,032
612	28467,655
612,2	28340,498
612,4	28212,311
612,7	28090,251
612,9	27965,893
613,1	27848,025
613,4	27728,284
613,6	27615,472
613,9	27496,248
614,1	27376,09
614,3	27256,498
614,6	27139,702
614,8	27019,592
615	26902,873
615,3	26788,921
615,5	26685,317
615,8	26575,683
616	26464,138
616,2	26358,022
616,5	26247,969
616,7	26145,307
616,9	26033,325
617,2	25927,311
617,4	25823,053
617,7	25719,694
617,9	25619,401
618,1	25529,428
618,4	25431,513
618,6	25326,388
618,8	25231,364
619,1	25130,865
619,3	25034,094
619,6	24942,036
619,8	24847,773
620	24756,23
620,3	24667,217
620,5	24567,406
620,7	24465,636
621	24373,5
621,2	24283,533
621,5	24186,944
621,7	24095,039
621,9	24001,237
622,2	23905,077
622,4	23811,131
622,6	23718,033
622,9	23621,162
623,1	23530,761
623,4	23443,205
623,6	23361,898
623,8	23277,581
624,1	23202,032
624,3	23119,276
624,5	23042,245
624,8	22956,218
625	22882,261
625,3	22799,347
625,5	22719,023
625,7	22641,457
626	22566,611
626,2	22484,726
626,4	22409,16
626,7	22328,582
626,9	22251,551
627,1	22170,124
627,4	22093,19
627,6	22009,201
627,9	21933,338
628,1	21851,128
628,3	21773,324
628,6	21699,782
628,8	21629,668
629	21561,823
629,3	21498,079
629,5	21432,203
629,8	21362,058
630	21288,258
630,2	21224,8
630,5	21167,07
630,7	21109,696
630,9	21054,587
631,2	20999,853
631,4	20940,942
631,6	20889,178
631,9	20843,482
632,1	20803,96
632,4	20750,102
632,6	20701,219
632,8	20650,806
633,1	20599,217
633,3	20548,587
633,5	20501,28
633,8	20450,428
634	20394,471
634,2	20345,716
634,5	20294,41
634,7	20240,211
635	20203,269
635,2	20158,351
635,4	20121,84
635,7	20088,401
635,9	20054,968
636,1	20017,561
636,4	19982,05
636,6	19953,344
636,8	19925,454
637,1	19887,873
637,3	19861,012
637,5	19829,995
637,8	19793,767
638	19756,992
638,3	19720,298
638,5	19677,736
638,7	19636,619
639	19592,977
639,2	19548,542
639,4	19507,047
639,7	19451,35
639,9	19396,024
640,1	19337,505
640,4	19271,679
640,6	19212,057
640,9	19151,847
641,1	19088,914
641,3	19025,495
641,6	18961,083
641,8	18889,447
642	18820,537
642,3	18745,98
642,5	18682,42
642,7	18608,625
643	18536,631
643,2	18469,63
643,4	18401,386
643,7	18336,361
643,9	18274,384
644,1	18209,109
644,4	18149,025
644,6	18086,467
644,9	18013,207
645,1	17942,956
645,3	17872,353
645,6	17810,332
645,8	17748,499
646	17682,348
646,3	17610,112
646,5	17538,319
646,7	17476,871
647	17409,497
647,2	17344,516
647,4	17286,596
647,7	17226,463
647,9	17156,851
648,1	17089,666
648,4	17023,251
648,6	16953,755
648,9	16879,949
649,1	16803,583
649,3	16714,787
649,6	16629,764
649,8	16534,237
650	16440,715
650,3	16356,164
650,5	16275,97
650,7	16196,712
651	16114,473
651,2	16032,885
651,4	15963,959
651,7	15890,822
651,9	15823,921
652,1	15767,492
652,4	15715,649
652,6	15663,396
652,8	15609,615
653,1	15558,154
653,3	15526,663
653,5	15491,078
653,8	15442,155
654	15403,194
654,3	15372,612
654,5	15336,743
654,7	15310,218
655	15279,269
655,2	15247,96
655,4	15225,743
655,7	15195,383
655,9	15166,507
656,1	15145,587
656,4	15124,463
656,6	15100,825
656,8	15074,046
657,1	15049,275
657,3	15023,983
657,5	14993,968
657,8	14964,303
658	14928,154
658,2	14895,655
658,5	14862,903
658,7	14831,124
658,9	14794,785
659,2	14769,795
659,4	14738,841
659,6	14713,349
659,9	14669,324
660,1	14631,778
660,3	14600,065
660,6	14568,098
660,8	14536,66
661	14504,084
661,3	14463,398
661,5	14434,766
661,8	14402,207
662	14366,649
662,2	14343,438
662,5	14318,816
662,7	14291,196
662,9	14268,418
663,2	14247,568
663,4	14232,108
663,6	14224,044
663,9	14221,206
664,1	14217,469
664,3	14210,437
664,6	14201,201
664,8	14182,907
665	14170,701
665,3	14147,721
665,5	14126,419
665,7	14108,391
666	14083,598
666,2	14053,749
666,4	14014,675
666,7	13973,797
666,9	13934,29
667,1	13900,574
667,4	13866,848
667,6	13808,916
667,8	13765,107
668,1	13723,421
668,3	13690,56
668,5	13640,976
668,8	13603,375
669	13563,565
669,2	13519,487
669,5	13478,974
669,7	13432,555
669,9	13398,638
670,2	13358,79
670,4	13313,126
670,6	13264,454
670,9	13225,543
671,1	13183,237
671,3	13142,176
671,6	13097,939
671,8	13053,383
672	13015,092
672,3	12976,974
672,5	12932,786
672,7	12894,962
673	12850,788
673,2	12815,688
673,4	12769,076
673,7	12727,134
673,9	12678,574
674,1	12644,466
674,4	12605,001
674,6	12560,069
674,8	12517,116
675,1	12470,547
675,3	12424,971
675,5	12389,232
675,8	12343,896
676	12305,498
676,2	12259,438
676,5	12215,138
676,7	12168,756
676,9	12134,463
677,2	12085,661
677,4	12045,414
677,6	12002,429
677,9	11962,022
678,1	11913,973
678,3	11873,228
678,5	11830,793
678,8	11788,789
679	11750,166
679,2	11700,455
679,5	11652,394
679,7	11594,517
679,9	11525,537
680,2	11450,312
680,4	11378,285
680,6	11297,141
680,9	11216,098
681,1	11129,498
681,3	11044,488
681,6	10959,637
681,8	10881,181
682	10800,784
682,3	10722,714
682,5	10639,999
682,7	10566,814
683	10487,187
683,2	10407,809
683,4	10337,138
683,7	10260,87
683,9	10194,349
684,1	10117,335
684,4	10051,794
684,6	9988,662
684,8	9926,384
685,1	9865,475
685,3	9810,619
685,5	9749,339
685,7	9696,608
686	9635,381
686,2	9568,27
686,4	9503,502
686,7	9438,528
686,9	9370,915
687,1	9304,739
687,4	9235,549
687,6	9172,059
687,8	9105,49
688,1	9042,832
688,3	8974,557
688,5	8916,455
688,8	8862,726
689	8798,483
689,2	8743,618
689,5	8689,582
689,7	8630,373
689,9	8579,169
690,2	8522,411
690,4	8478,584
690,6	8430,784
690,8	8387,512
691,1	8336,854
691,3	8294,234
691,5	8248,318
691,8	8200,914
692	8149,203
692,2	8105,376
692,5	8060,434
692,7	8011,478
692,9	7961,021
693,2	7908,776
693,4	7863,879
693,6	7829,164
693,9	7800,389
694,1	7773,225
694,3	7754,425
694,5	7735,331
694,8	7725,163
695	7714,086
695,2	7709,65
695,5	7704,005
695,7	7700,536
695,9	7689,152
696,2	7680,479
696,4	7668,999
696,6	7663,04
696,9	7655,8
697,1	7650,167
697,3	7642,788
697,6	7636,128
697,8	7624,704
698	7613,97
698,2	7603,718
698,5	7586,061
698,7	7573,605
698,9	7561,29
699,2	7541,967
699,4	7515,662
699,6	7498,465
699,9	7479,827
700,1	7467,743
700,3	7452,22
700,6	7440,608
700,8	7425,445
701	7416,172
701,2	7408,584
701,5	7397,909
701,7	7389,842
701,9	7385,428
702,2	7377,616
702,4	7373,598
702,6	7360,596
702,9	7342,617
703,1	7330,016
703,3	7315,685
703,6	7301,665
703,8	7290,385
704	7270,748
704,2	7251,925
704,5	7228,751
704,7	7205,763
704,9	7181,946
705,2	7157,131
705,4	7136,997
705,6	7114,985
705,9	7096,52
706,1	7076,807
706,3	7058,034
706,5	7039,581
706,8	7024,756
707	7009,83
707,2	6993,104
707,5	6978,266
707,7	6956,391
707,9	6935,59
708,2	6918,841
708,4	6906,808
708,6	6889,444
708,8	6874,81
709,1	6860,02
709,3	6841,823
709,5	6816,376
709,8	6786,058
710	6761,285
710,2	6725,134
710,5	6689,971
710,7	6651,128
710,9	6603,269
711,1	6549,13
711,4	6495,439
711,6	6438,045
711,8	6386,55
712,1	6323,867
712,3	6264,163
712,5	6206,498
712,8	6142,071
713	6081,141
713,2	6020,053
713,4	5966,634
713,7	5907,658
713,9	5848,481
714,1	5793,189
714,4	5742,412
714,6	5690,528
714,8	5645,479
715,1	5600,934
715,3	5559,785
715,5	5520,942
715,7	5476,087
716	5437,266
716,2	5391,661
716,4	5345,84
716,7	5302,273
716,9	5254,618
717,1	5206,404
717,3	5155,163
717,6	5106,113
717,8	5054,765
718	5004,298
718,3	4952,758
718,5	4900,454
718,7	4846,837
718,9	4795,894
719,2	4749,948
719,4	4700,644
719,6	4656,065
719,9	4609,208
720,1	4562,631
720,3	4514,487
720,6	4460,648
720,8	4409,792
721	4366,18
721,2	4325,913
721,5	4281,451
721,7	4237,431
721,9	4199,308
722,2	4152,329
722,4	4107,28
722,6	4062,202
722,8	4015,489
723,1	3972,553
723,3	3930,195
723,5	3891,332
723,8	3859,155
724	3830,101
724,2	3805,463
724,4	3787,026
724,7	3765,789
724,9	3751,702
725,1	3748,352
725,4	3744,167
725,6	3740,493
725,8	3740,236
726	3746,998
726,3	3751,115
726,5	3762,504
726,7	3773,873
727	3784,944
727,2	3797,982
727,4	3803,195
727,6	3817,456
727,9	3826,301
728,1	3831,686
728,3	3835,509
728,6	3841,096
728,8	3841,679
729	3837,18
729,2	3829,488
729,5	3818,55
729,7	3812,109
729,9	3798,506
730,2	3797,69
730,4	3793,157
730,6	3796,315
730,8	3798,164
731,1	3811,501
731,3	3819,468
731,5	3820,364
731,7	3831,194
732	3838,22
732,2	3845,65
732,4	3855,449
732,7	3864,773
732,9	3874,455
733,1	3877,526
733,3	3884,325
733,6	3884,25
733,8	3889,82
734	3894,744
734,3	3903,005
734,5	3917,93
734,7	3927,518
734,9	3931,272
735,2	3935,727
735,4	3942,42
735,6	3945,104
735,9	3947,065
736,1	3956,172
736,3	3961,979
736,5	3980,242
736,8	3994,501
737	4000,642
737,2	4008,529
737,4	4022,585
737,7	4034,051
737,9	4039,856
738,1	4047,797
738,4	4054,898
738,6	4063,503
738,8	4075,295
739	4076,688
739,3	4082,583
739,5	4088,471
739,7	4084,169
739,9	4079,937
740,2	4079,693
740,4	4074,893
740,6	4074,5
740,9	4070,8
741,1	4062,622
741,3	4061,636
741,5	4059,051
741,8	4056,815
742	4049,47
742,2	4044,814
742,4	4038,376
742,7	4033,529
742,9	4032,717
743,1	4031,896
743,4	4024,636
743,6	4024,992
743,8	4026,137
744	4021,57
744,3	4017,021
744,5	4004,499
744,7	3994,806
744,9	3983,121
745,2	3975,973
745,4	3968,751
745,6	3955,269
745,8	3947,641
746,1	3939,879
746,3	3932,623
746,5	3925,61
746,8	3919,934
747	3912,703
747,2	3905,526
747,4	3899,632
747,7	3893,134
747,9	3886,095
748,1	3879,512
748,3	3871,355
748,6	3865,734
748,8	3858,898
749	3845,819
749,2	3836,952
749,5	3830,926
749,7	3820,223
749,9	3816,022
750,2	3809,45
750,4	3790,969
750,6	3780,94
750,8	3774,794
751,1	3765,836
751,3	3753,831
751,5	3740,587
751,7	3729,127
752	3718,788
752,2	3707,411
752,4	3691,015
752,6	3661,148
752,9	3633,745
753,1	3597,155
753,3	3557,865
753,5	3519,73
753,8	3477,283
754	3428,469
754,2	3376,586
754,4	3319,213
754,7	3272,98
754,9	3231,858
755,1	3181,711
755,4	3128,221
755,6	3073,793
755,8	3033,991
756	2986,16
756,3	2940,27
756,5	2891,431
756,7	2839,759
756,9	2786,236
757,2	2744,469
757,4	2692,683
757,6	2644,698
757,8	2598,703
758,1	2557,591
758,3	2517,333
758,5	2484,412
758,7	2441,326
759	2400,647
759,2	2365,556
759,4	2330,17
759,6	2293,827
759,9	2268,372
760,1	2234,545
760,3	2202,254
760,5	2170,223
760,8	2141,356
761	2111,865
761,2	2086,953
761,4	2061,375
761,7	2036,905
761,9	2008,274
762,1	1977,672
762,3	1953,258
762,6	1927,749
762,8	1911,46
763	1889,806
763,2	1866,989
763,5	1847,465
763,7	1823,171
763,9	1800,435
764,1	1782,347
764,4	1761,922
764,6	1741,796
764,8	1724,627
765	1707,179
765,3	1685,965
765,5	1668,253
765,7	1650,105
765,9	1634,317
766,2	1619,511
766,4	1618,893
766,6	1618,236
766,8	1624,472
767,1	1635,028
767,3	1647,361
767,5	1665,454
767,7	1682,843
768	1707,464
768,2	1731,477
768,4	1747,231
768,6	1761,322
768,9	1777,203
769,1	1798,698
769,3	1820,14
769,5	1831,157
769,8	1848,055
770	1867,083
770,2	1887,269
770,4	1900,58
770,7	1919,026
770,9	1935,193
771,1	1952,217
771,3	1965,568
771,6	1980,309
771,8	1993,581
772	2005,747
772,2	2011,488
772,5	2025,128
772,7	2037,93
772,9	2047,858
773,1	2054,24
773,4	2062,178
773,6	2061,154
773,8	2063,718
774	2064,914
774,3	2061,296
774,5	2063,422
774,7	2062,596
774,9	2057,719
775,2	2050,068
775,4	2047,867
775,6	2041,806
775,8	2039,182
776	2032,334
776,3	2026,927
776,5	2012,748
776,7	2006,236
776,9	1998,792
777,2	1987,951
777,4	1977,308
777,6	1971,009
777,8	1960,69
778,1	1947,418
778,3	1935,802
778,5	1926,978
778,7	1914,852
779	1908,744
779,2	1897,43
779,4	1888,19
779,6	1880,702
779,9	1872,056
780,1	1858,789
780,3	1846,727
780,5	1831,345
780,7	1818,187
781	1805,31
781,2	1791,673
781,4	1778,734
781,6	1764,536
781,9	1751,333
782,1	1739,125
782,3	1727,075
782,5	1723,118
782,8	1710,849
783	1699,853
783,2	1692,446
783,4	1683,987
783,7	1672,217
783,9	1661,916
784,1	1654,471
784,3	1644,723
784,5	1635,829
784,8	1627,58
785	1617,42
785,2	1603,648
785,4	1586,74
785,7	1570,286
785,9	1559,146
786,1	1544,14
786,3	1526,585
786,6	1516,247
786,8	1502,865
787	1491,881
787,2	1480,712
787,4	1469,244
787,7	1461,072
787,9	1456,723
788,1	1449,096
788,3	1437,816
788,6	1427,947
788,8	1419,004
789	1404,564
789,2	1394,65
789,5	1380,446
789,7	1376,514
789,9	1368,154
790,1	1364,781
790,3	1354,196
790,6	1346,752
790,8	1338,875
791	1332,228
791,2	1323,195
791,5	1313,02
791,7	1309,235
791,9	1299,648
792,1	1288,154
792,3	1280,857
792,6	1272,993
792,8	1263,54
793	1251,696
793,2	1242,547
793,5	1235,676
793,7	1231,451
793,9	1227,947
794,1	1227,632
794,3	1221,362
794,6	1212,978
794,8	1210,324
795	1230,761
795,2	1226,811
795,5	1227,722
795,7	1222,18
795,9	1217,353
796,1	1208,147
796,3	1203,412
796,6	1195,501
796,8	1185,051
797	1179,066
797,2	1171,139
797,5	1164,517
797,7	1159,859
797,9	1152,053
798,1	1147,572
798,3	1136,32
798,6	1132,388
798,8	1131,002
799	1131,323
799,2	1128,017
799,5	1122,43
799,7	1120,435
799,9	1120,222
800,1	1113,348
800,3	1116,019
800,6	1111,437
800,8	1108,184
801	1105,546
801,2	1100,887
801,5	1093,454
801,7	1081,571
801,9	1075,433
802,1	1069,818
802,3	1064,762
802,6	1060,271
802,8	1057,904
803	1056,144
803,2	1045,301
803,4	1034,38
803,7	1028,623
803,9	1025,504
804,1	1020,742
804,3	1011,948
804,6	1004,453
804,8	996,085
805	993,868
805,2	991,903
805,4	991,036
805,7	982,549
805,9	981,795
806,1	974,307
806,3	969,001
806,5	963,086
806,8	949,487
807	944,205
807,2	934,68
807,4	921,389
807,6	909,079
807,9	902,195
808,1	898,167
808,3	887,521
808,5	857,585
808,8	850,532
809	836,313
809,2	827,526
809,4	817,747
809,6	810,701
809,9	803,896
810,1	794,579
810,3	788,474
810,5	778,845
810,7	770,234
811	761,9
811,2	755,607
811,4	745,95
811,6	729,438
811,8	727,573
812,1	720,673
812,3	712,754
812,5	699,456
812,7	693,954
812,9	690,099
813,2	677,903
813,4	668,513
813,6	662,703
813,8	653,067
814	644,924
814,3	634,884
814,5	626,93
814,7	618,127
814,9	609,529
815,2	602,717
815,4	595,325
815,6	586,625
815,8	584,581
816	580,004
816,3	574,322
816,5	572,628
816,7	565,139
816,9	558,882
817,1	551,9
817,4	542,198
817,6	539,933
817,8	541,017
818	537,477
818,2	533,734
818,5	526,564
818,7	515,12
818,9	511,53
819,1	508,107
819,3	497,863
819,6	495,424
819,8	491,714
820	489,325
820,2	486,542
820,4	484,112
820,7	479,133
820,9	477,707
821,1	474,59
821,3	473,884
821,5	468,823
821,8	465,618
822	460,779
822,2	457,654
822,4	457,587
822,6	455,312
822,9	454,668
823,1	451,771
823,3	445,936
823,5	443,593
823,7	442,65
823,9	443,172
824,2	445,285
824,4	447,208
824,6	445,768
824,8	449,97
825	455,671
825,3	452,87
825,5	451,973
825,7	447,98
825,9	451,27
826,1	451,962
826,4	450,543
826,6	452,896
826,8	450,894
827	446,217
827,2	444,925
827,5	443,753
827,7	442,679
827,9	440,844
828,1	440,263
828,3	438,263
828,6	438,3
828,8	439,331
829	443,053
829,2	440,414
829,4	437,677
829,6	434,991
829,9	429,801
830,1	431,93
830,3	437,465
830,5	439,873
830,7	441,943
831	439,695
831,2	438,298
831,4	432,968
831,6	430,863
831,8	428,434
832,1	427,557
832,3	421,678
832,5	423,128
832,7	426,131
832,9	422,116
833,1	426,189
833,4	424,545
833,6	422,079
833,8	416,905
834	417,842
834,2	416,899
834,5	415,922
834,7	410,65
834,9	416,332
835,1	414,543
835,3	419,489
835,5	419,312
835,8	417,174
836	420,423
836,2	422,738
836,4	422,538
836,6	421,319
836,9	424,189
837,1	430,124
837,3	426,58
837,5	427,556
837,7	422,807
837,9	423,375
838,2	419,576
838,4	419,401
838,6	417,629
838,8	413,796
839	416,473
839,3	416,671
839,5	417,293
839,7	412,393
839,9	410,278
840,1	415,905
840,3	416,493
840,6	415,197
840,8	415,781
841	414,426
841,2	412,082
841,4	407,656
841,7	411,13
841,9	407,885
842,1	406,682
842,3	405,377
842,5	407,459
842,7	406,465
843	404,245
843,2	405,177
843,4	401,863
843,6	398,832
843,8	395,797
844	394,3
844,3	391,254
844,5	388,793
844,7	391,888
844,9	388,966
845,1	388,784
845,4	385,831
845,6	382,175
845,8	379,483
846	376,911
846,2	379,159
846,4	371,127
846,7	367,263
846,9	365,632
847,1	367,788
847,3	364,79
847,5	362,403
847,7	358,436
848	357,63
848,2	349,765
848,4	347,785
848,6	341,493
848,8	341,587
849	335,994
849,3	332,164
849,5	330,615
849,7	330,747
849,9	334,64
850,1	331,538
850,3	322,604
850,6	321,283
850,8	311,488
851	314,813
851,2	310,236
851,4	309,422
851,6	306,795
851,9	307,446
852,1	307,216
852,3	304,769
852,5	300,911
852,7	290,631
852,9	291,327
853,2	294,366
853,4	288,727
853,6	286,964
853,8	291,248
854	285,972
854,2	284,985
854,5	288,748
854,7	292,636
854,9	289,863
855,1	288,573
855,3	286,297
855,5	283,033
855,8	274,723
856	273,238
856,2	274,464
856,4	269,873
856,6	269,35
856,8	266,226
857,1	262,556
857,3	259,18
857,5	254,142
857,7	252,029
857,9	253,834
858,1	255,688
858,4	256,099
858,6	259,963
858,8	260,91
859	260,876
859,2	257,267
859,4	252,757
859,7	254,891
859,9	258,477
860,1	261,494
860,3	257,397
860,5	253,94
860,7	257,982
860,9	263,681
861,2	263,341
861,4	262,223
861,6	262,933
861,8	263,276
862	261,771
862,2	263,898
862,5	264,261
862,7	261,324
862,9	255,626
863,1	249,656
863,3	252,585
863,5	249,267
863,8	247,962
864	249,522
864,2	243,063
864,4	241,748
864,6	241,869
864,8	241,209
865	239,343
865,3	238,265
865,5	231,804
865,7	230,739
865,9	236,589
866,1	236,315
866,3	230,972
866,6	228,854
866,8	228,415
867	219,226
867,2	218,609
867,4	216,763
867,6	211,212
867,8	205,082
868,1	200,439
868,3	199,359
868,5	204,622
868,7	200,737
868,9	198,722
869,1	196,278
869,3	192,24
869,6	193,405
869,8	191,606
870	192,443
870,2	194,592
870,4	194,101
870,6	195,591
870,9	192,893
871,1	187,697
871,3	182,331
871,5	177,124
871,7	171,916
871,9	170,649
872,1	164,814
872,4	161,602
872,6	163,009
872,8	168,259
873	167,522
873,2	162,201
873,4	161,623
873,6	164,7
873,9	160,405
874,1	154,402
874,3	148,721
874,5	152,362
874,7	154,026
874,9	147,429
875,1	143,902
875,4	143,951
875,6	140,406
875,8	136,352
876	140,398
876,2	138,771
876,4	137,515
876,6	138,683
876,9	141,151
877,1	139,752
877,3	141,664
877,5	142,702
877,7	140,659
877,9	140,362
878,1	141,063
878,4	138,788
878,6	136,876
878,8	135,792
879	135,739
879,2	136,324
879,4	137,185
879,6	137,355
879,9	135,176
880,1	135,098
880,3	135,355
880,5	139,896
880,7	137,085
880,9	138,806
881,1	135,27
881,3	136,179
881,6	132,554
881,8	135,603
882	133,886
882,2	135,684
882,4	137,08
882,6	136,809
882,8	138,524
883,1	136,622
883,3	131,58
883,5	131,534
883,7	132,961
883,9	134,879
884,1	132,86
884,3	136,983
884,6	141,545
884,8	140,402
885	140,99
885,2	142,127
885,4	143,66
885,6	140,99
885,8	138,983
886	136,03
886,3	135,741
886,5	134,864
886,7	137,766
886,9	135,969
887,1	136,841
887,3	142,223
887,5	139,632
887,8	133,817
888	137,453
888,2	135,718
888,4	136,669
888,6	137,261
888,8	136,005
889	131,51
889,2	128,15
889,5	124,811
889,7	123,428
889,9	123,06
890,1	126,909
890,3	123,479
890,5	119,958
890,7	119,839
890,9	117,492
891,2	115,961
891,4	114,854
891,6	119,481
891,8	121,295
892	117,55
892,2	115,183
892,4	112,087
892,6	109,386
892,9	112,793
893,1	109,255
893,3	110,281
893,5	105,86
893,7	108,187
893,9	107,663
894,1	109,151
894,3	109,432
894,6	106,331
894,8	107,201
895	107,343
895,2	103,227
895,4	101,248
895,6	94,632
895,8	92,84
896	96,136
896,3	99,271
896,5	96,812
896,7	94,096
896,9	97,412
897,1	100,96
897,3	99,683
897,5	96,855
897,7	93,933
898	93,665
898,2	90,816
898,4	91,046
898,6	90,802
898,8	81,972
899	79,978
899,2	80,415
899,4	77,645
899,6	67,01
899,9	64,531
900,1	62,631
900,3	59,787
900,5	55,804
900,7	55,856
900,9	55,503
901,1	57,425
901,3	55,184
901,6	55,01
901,8	57,203
902	56,908
902,2	62,623
902,4	61,658
902,6	62,778
902,8	60,33
903	57,843
903,2	56,916
903,5	56,756
903,7	61,318
903,9	60,589
904,1	57,578
904,3	53,585
904,5	50,559
904,7	51,125
904,9	48,031
905,1	42,861
905,4	44,619
905,6	44,766
905,8	38,825
906	38,693
906,2	37,139
906,4	35,653
906,6	29,789
906,8	26,839
907	29,311
907,3	26,239
907,5	26,371
907,7	19,891
907,9	26,77
908,1	36,187
908,3	33,343
908,5	35,778
908,7	35,764
908,9	32,525
909,2	25,765
909,4	30,451
909,6	29,382
909,8	25,71
910	23,912
910,2	21,367
910,4	23,308
910,6	27,766
910,8	28,271
911,1	30,41
911,3	30,798
911,5	27,447
911,7	28,375
911,9	33,567
912,1	34,897
912,3	38,054
912,5	40,605
912,7	43,611
912,9	43,132
913,2	39,98
913,4	41,251
913,6	45,266
913,8	47,69
914	44,205
914,2	46,481
914,4	42,226
914,6	44,322
914,8	37,995
915,1	35,325
915,3	31,497
915,5	31,014
915,7	30,306
915,9	28,318
916,1	33,445
916,3	36,387
916,5	26,869
916,7	26,196
916,9	27,33
917,2	30,366
917,4	33,842
917,6	30,868
917,8	31,348
918	34,49
918,2	29,281
918,4	26,375
918,6	30,018
918,8	29,516
919	23,865
919,2	22,201
919,5	23,709
919,7	27,337
919,9	23,13
920,1	24,022
920,3	19,759
920,5	21,696
920,7	16,617
920,9	7,895
921,1	8,993
921,3	7,335
921,6	4,547
921,8	2,949
922	6,634
922,2	4,037
922,4	5,044
922,6	2,217
922,8	2,78
923	3,164
923,2	-0,849
923,4	-0,769
923,6	-6,175
923,9	-6,792
924,1	-5,693
924,3	-6,049
924,5	-5,977
924,7	-9,338
924,9	-12,262
925,1	-15,204
925,3	-15,115
925,5	-18,192
925,7	-14,358
925,9	-10,316
926,2	-7,682
926,4	-9,518
926,6	-14,937
926,8	-15,141
927	-20,835
927,2	-20,404
927,4	-19,358
927,6	-9,246
927,8	-9,368
928	-7,938
928,2	-9,967
928,5	-8,16
928,7	-5,084
928,9	-10,958
929,1	-18,804
929,3	-19,007
929,5	-21,156
929,7	-25,36
929,9	-28,365
930,1	-32,779
930,3	-33,787
930,5	-32,487
930,8	-33,447
931	-28,878
931,2	-25,531
931,4	-26,957
931,6	-25,656
931,8	-22,137
932	-21,393
932,2	-19,038
932,4	-23,825
932,6	-23,891
932,8	-22,658
933	-22,221
933,3	-21,839
933,5	-21,59
933,7	-20,84
933,9	-21,06
934,1	-20,435
934,3	-20,824
934,5	-23,692
934,7	-24,895
934,9	-32,482
935,1	-34,576
935,3	-29,049
935,5	-29,733
935,7	-32,891
936	-34,714
936,2	-33,786
936,4	-30,112
936,6	-31,34
936,8	-37,015
937	-33,443
937,2	-33,106
937,4	-34,623
937,6	-33,854
937,8	-32,038
938	-32,198
938,2	-32,122
938,4	-34,137
938,7	-36,558
938,9	-38,709
939,1	-41,513
939,3	-39,098
939,5	-33,441
939,7	-32,499
939,9	-31,846
940,1	-34,944
940,3	-39,831
940,5	-38,56
940,7	-39,303
940,9	-41,473
941,1	-43,872
941,4	-50,918
941,6	-45,09
941,8	-39,701
942	-32,664
942,2	-30,602
942,4	-25,051
942,6	-18,959
942,8	-19,883
943	-19,236
943,2	-23,497
943,4	-24,014
943,6	-25,855
943,8	-25,652
944	-27,672
944,3	-29,084
944,5	-30,981
944,7	-33,216
944,9	-33,943
945,1	-29,406
945,3	-29,494
945,5	-30,928
945,7	-28,211
945,9	-27,603
946,1	-27,323
946,3	-28,131
946,5	-28,904
946,7	-28,432
946,9	-27,73
947,1	-20,882
947,4	-20,753
947,6	-18,429
947,8	-18,181
948	-26,451
948,2	-21,085
948,4	-18,825
948,6	-22,381
948,8	-25,551
949	-26,499
949,2	-24,506
949,4	-21,101
949,6	-22,598
949,8	-19,612
950	-22,307
950,2	-21,378
950,5	-26,202
950,7	-24,674
950,9	-20,673
951,1	-25,982
951,3	-25,189
951,5	-28,031
951,7	-28,822
951,9	-27,391
952,1	-28,656
952,3	-28,484
952,5	-32,036
952,7	-30,674
952,9	-30,372
953,1	-30,541
953,3	-26,167
953,5	-24,848
953,8	-25,943
954	-23,416
954,2	-27,588
954,4	-30,614
954,6	-33,475
954,8	-33,223
955	-37,737
955,2	-42,428
955,4	-42,226
955,6	-44,728
955,8	-41,559
956	-39,873
956,2	-37,496
956,4	-42,266
956,6	-40,614
956,8	-41,775
957	-39,588
957,2	-34,755
957,5	-32,302
957,7	-32,116
957,9	-28,935
958,1	-30,092
958,3	-33,076
958,5	-36,962
958,7	-42,206
958,9	-42,758
959,1	-36,543
959,3	-42,646
959,5	-40,938
959,7	-47,315
959,9	-50,714
960,1	-50,569
960,3	-51,622
960,5	-52,099
960,7	-62,075
960,9	-65,332
961,1	-64,298
961,4	-62,519
961,6	-62,834
961,8	-61,962
962	-64,301
962,2	-67,368
962,4	-70,448
962,6	-63,093
962,8	-64,316
963	-63,75
963,2	-62,908
963,4	-58,459
963,6	-58,913
963,8	-55,464
964	-55,548
964,2	-53,066
964,4	-53,729
964,6	-59,97
964,8	-58,8
965	-52
965,2	-49,781
965,5	-48,324
965,7	-49,592
965,9	-47,726
966,1	-44,907
966,3	-41,174
966,5	-42,918
966,7	-42,762
966,9	-40,073
967,1	-40,945
967,3	-41,355
967,5	-41,56
967,7	-40,163
967,9	-33,11
968,1	-30,176
968,3	-29,567
968,5	-29,803
968,7	-30,568
968,9	-27,85
969,1	-23,708
969,3	-24,119
969,5	-26,311
969,7	-27,491
969,9	-29,229
970,2	-29,231
970,4	-33,191
970,6	-32,212
970,8	-30,42
971	-28,73
971,2	-25,37
971,4	-27,554
971,6	-32,393
971,8	-23,731
972	-26,033
972,2	-24,758
972,4	-21,952
972,6	-15,862
972,8	-13,8
973	-10,699
973,2	-9,188
973,4	-3,784
973,6	-0,7
973,8	-2,006
974	-5,249
974,2	-4,756
974,4	-6,025
974,6	-4,826
974,8	-0,547
975	-4,749
975,2	-0,343
975,5	0,121
975,7	-1,584
975,9	-9,091
976,1	-2,157
976,3	-3,606
976,5	-0,82
976,7	-4,37
976,9	-6,159
977,1	-7,331
977,3	-9,125
977,5	-12,763
977,7	-16,183
977,9	-13,805
978,1	-14,294
978,3	-17,531
978,5	-17,874
978,7	-22,18
978,9	-19,2
979,1	-19,249
979,3	-22,74
979,5	-19,028
979,7	-21,918
979,9	-21,359
980,1	-19,774
980,3	-26,056
980,5	-26,421
980,7	-23,185
980,9	-23,338
981,1	-20,771
981,3	-20,823
981,5	-27,382
981,7	-24,944
981,9	-18,267
982,2	-17,792
982,4	-18,886
982,6	-24,306
982,8	-20,878
983	-16,97
983,2	-13,69
983,4	-15,335
983,6	-11,749
983,8	-9,352
984	-6,394
984,2	-7,387
984,4	-9,539
984,6	-8,302
984,8	-8,346
985	-11,219
985,2	-15,511
985,4	-15,263
985,6	-15,438
985,8	-21,845
986	-20,388
986,2	-23,18
986,4	-17,924
986,6	-20,627
986,8	-17,356
987	-11,348
987,2	-17,3
987,4	-17,633
987,6	-17,535
987,8	-12,683
988	-13,182
988,2	-12,328
988,4	-14,529
988,6	-18,192
988,8	-21,945
989	-19,323
989,2	-15,95
989,4	-10,777
989,6	-10,311
989,8	-9,287
990	-10,437
990,2	-14,451
990,4	-16,026
990,6	-14,973
990,8	-14,495
991	-13,79
991,3	-12,698
991,5	-13,599
991,7	-11,44
991,9	-15,272
992,1	-15,633
992,3	-11,986
992,5	-14,057
992,7	-13,44
992,9	-13,425
993,1	-17,226
993,3	-20,275
993,5	-25,562
993,7	-27,78
993,9	-24,327
994,1	-27,487
994,3	-34,256
994,5	-37,271
994,7	-36,375
994,9	-34,443
995,1	-29,915
995,3	-33,868
995,5	-35,914
995,7	-32,513
995,9	-33,999
996,1	-32,858
996,3	-35,183
996,5	-40,325
996,7	-42,534
996,9	-46,821
997,1	-49,009
997,3	-49,795
997,5	-46,055
997,7	-45,73
997,9	-43,644
998,1	-40,14
998,3	-40,028
998,5	-40,154
998,7	-42,075
998,9	-43,41
999,1	-43,553
999,3	-47,634
999,5	-48,864
999,7	-51,666
999,9	-56,171
1000,1	-60,227
1000,3	-60,326
1000,5	-59,678
1000,7	-60,76
1000,9	-55,121
1001,1	-50,766
1001,3	-49,684
1001,5	-49,456
1001,7	-50,513
1001,9	-51,291
1002,1	-52,084
1002,3	-51,266
1002,5	-53,931
1002,7	-49,663
1002,9	-56,066
1003,1	-55,123
1003,3	-54,339
1003,5	-57,394
1003,7	-56,366
1003,9	-55,416
1004,1	-57,232
1004,3	-55,76
1004,5	-57,089
1004,7	-56,905
1004,9	-59,932
1005,1	-62,118
1005,3	-63,474
1005,5	-58,52
1005,7	-50,727
1005,9	-49,129
1006,1	-48,668
1006,3	-48,439
1006,5	-45,308
1006,7	-45,588
1006,9	-45,955
1007,1	-46,769
1007,3	-48,736
1007,5	-49,329
1007,7	-51,786
1007,9	-54,07
1008,1	-57,245
1008,3	-56,534
1008,5	-58,73
1008,7	-57,957
1008,9	-54,738
1009,1	-49,509
1009,3	-45,615
1009,5	-45,621
1009,7	-47,492
1009,9	-46,633
1010,1	-51,142
1010,3	-49,426
1010,5	-50,686
1010,7	-48,079
1010,9	-52,554
1011,1	-50,98
1011,3	-53,454
1011,5	-56,247
1011,7	-51,843
1011,9	-50,133
1012,1	-47,531
1012,3	-49,878
1012,5	-53,474
1012,7	-53,737
1012,9	-52,503
1013,1	-59,326
1013,3	-56,791
1013,5	-60,523
1013,7	-62,419
1013,9	-64,645
1014,1	-66,972
1014,3	-69,305
1014,5	-69,608
1014,7	-68,551
1014,9	-73,201
1015,1	-67,599
1015,3	-71,576
1015,5	-72,599
1015,7	-70,136
1015,9	-71,556
1016,1	-76,215
1016,3	-80,024
1016,5	-80,278
1016,7	-82,21
1016,9	-84,188
1017,1	-80,634
1017,3	-81,675
1017,5	-74,064
1017,7	-78,981
1017,9	-87,906
1018,1	-84,293
1018,3	-86,79
1018,5	-82,52
1018,7	-78,638
1018,9	-77,181
1019,1	-78,618
1019,2	-75,014
1019,4	-74,005
1019,6	-76,893
1019,8	-75,108
1020	-75,757
1020,2	-74,331
1020,4	-76,702
1020,6	-76,106
1020,8	-65,738
1021	-65,64
1021,2	-72,752
1021,4	-73,264
1021,6	-74,061
1021,8	-75,08
1022	-74,521
1022,2	-71,863
1022,4	-70,848
1022,6	-71,345
1022,8	-73,763
1023	-70,373
1023,2	-69,856
1023,4	-68,818
1023,6	-66,176
1023,8	-64,458
1024	-64,519
1024,2	-62,365
1024,4	-61,617
1024,6	-56,445
1024,8	-60,156
1025	-61,307
1025,2	-56,382
1025,4	-62,732
1025,6	-60,549
1025,8	-65,014
1026	-67,732
1026,2	-65,749
1026,4	-65,303
1026,6	-66,91
1026,8	-67,575
1027	-64,498
1027,2	-60,618
1027,4	-60,572
1027,6	-56,586
1027,8	-55,465
1028	-54,142
1028,1	-51,053
1028,3	-49,427
1028,5	-46,013
1028,7	-46,573
1028,9	-44,385
1029,1	-44,89
1029,3	-46,859
1029,5	-56,187
1029,7	-57,552
1029,9	-57,192
1030,1	-60,377
1030,3	-57,268
1030,5	-59,465
1030,7	-66,63
1030,9	-68,831
1031,1	-68,029
1031,3	-63,093
1031,5	-70,82
1031,7	-66,363
1031,9	-65
1032,1	-61,732
1032,3	-64,315
1032,5	-60,391
1032,7	-62,087
1032,9	-71,245
1033,1	-70,333
1033,3	-67,999
1033,5	-71,704
1033,7	-71,647
1033,9	-72,756
1034,1	-73,729
1034,3	-75,191
1034,4	-81,081
1034,6	-83,258
1034,8	-80,276
1035	-83,293
1035,2	-83,98
1035,4	-87,13
1035,6	-86,638
1035,8	-89,118
1036	-85,333
1036,2	-91,313
1036,4	-88,823
1036,6	-88,813
1036,8	-86,019
1037	-82,961
1037,2	-86,169
1037,4	-82,261
1037,6	-79,882
1037,8	-78,81
1038	-75,019
1038,2	-78,284
1038,4	-78,642
1038,6	-81,035
1038,8	-79,117
1039	-81,442
1039,2	-87,847
1039,4	-87,439
1039,5	-91,435
1039,7	-94,512
1039,9	-97,528
1040,1	-98,487
1040,3	-95,799
1040,5	-98,956
1040,7	-98,702
1040,9	-99,123
1041,1	-99,878
1041,3	-96,522
1041,5	-94,09
1041,7	-90,159
1041,9	-88,427
1042,1	-89,254
1042,3	-93,236
1042,5	-92,51
1042,7	-89,514
1042,9	-88,568
1043,1	-88,331
1043,3	-98,644
1043,5	-95,471
1043,7	-97,597
1043,8	-102,111
1044	-104,893
1044,2	-102,88
1044,4	-107,639
1044,6	-104,923
1044,8	-105,213
1045	-106,289
1045,2	-103,32
