Data from mesure_FLMT021711__4__26.txt Node

Date: Mon Nov 04 11:51:06 CET 2024
User: jordan.swietlicki
Spectrometer: FLMT02171
Trigger mode: 0
Integration Time (sec): 1,000000E-1
Scans to average: 15
Electric dark correction enabled: true
Nonlinearity correction enabled: false
Boxcar width: 15
XAxis mode: Wavelengths
Number of Pixels in Spectrum: 3648
>>>>>Begin Spectral Data<<<<<
194,7	-41,987
194,9	-40,587
195,2	-36,698
195,5	-36,536
195,7	-33,327
196	-32,561
196,2	-31,695
196,5	-32,998
196,8	-31,976
197	-30,887
197,3	-30,717
197,6	-28,244
197,8	-27,759
198,1	-25,453
198,4	-23,013
198,6	-21,099
198,9	-15,959
199,2	-11,252
199,4	-5,746
199,7	0,375
200	0,198
200,2	-1,684
200,5	-2,11
200,7	-2,748
201	-1,752
201,3	-2,287
201,5	-1,556
201,8	-2,193
202,1	-0,432
202,3	-0,771
202,6	-0,586
202,9	-1,812
203,1	-1,28
203,4	-2,118
203,7	-2,001
203,9	-2,789
204,2	-2,419
204,5	-1,167
204,7	-0,043
205	0,892
205,2	1,85
205,5	3,306
205,8	3,219
206	6,134
206,3	5,493
206,6	6,142
206,8	5,701
207,1	5,848
207,4	7,616
207,6	9,378
207,9	9,563
208,2	10,815
208,4	12,625
208,7	12,059
208,9	13,715
209,2	13,658
209,5	13,568
209,7	14,164
210	14,201
210,3	14,017
210,5	15,868
210,8	16,238
211,1	16,834
211,3	16,758
211,6	15,684
211,9	16,132
212,1	16,525
212,4	16,634
212,6	16,491
212,9	16,909
213,2	15,171
213,4	15,389
213,7	15,472
214	16,321
214,2	13,753
214,5	13,59
214,8	12,086
215	11,539
215,3	14,171
215,5	14,733
215,8	13,764
216,1	13,111
216,3	13,673
216,6	12,391
216,9	13,119
217,1	13,206
217,4	12,651
217,7	12,979
217,9	10,438
218,2	10,792
218,5	10,124
218,7	8,589
219	8,62
219,2	10,06
219,5	11,61
219,8	12,968
220	13,13
220,3	13,956
220,6	15,035
220,8	13,677
221,1	13,711
221,4	14,013
221,6	13,643
221,9	14,809
222,1	13,489
222,4	13,568
222,7	15,393
222,9	13,409
223,2	12,5
223,5	9,981
223,7	10,626
224	9,483
224,2	9,212
224,5	9,163
224,8	9,902
225	9,777
225,3	9,634
225,6	10,351
225,8	11,403
226,1	13,123
226,4	11,931
226,6	11,037
226,9	12,878
227,1	13,353
227,4	12,44
227,7	10,977
227,9	10,456
228,2	10,438
228,5	8,925
228,7	8,359
229	8,043
229,3	9,838
229,5	13,462
229,8	13,183
230	11,969
230,3	11,033
230,6	11,769
230,8	9,563
231,1	11,362
231,4	11,052
231,6	15,216
231,9	13,903
232,1	15,027
232,4	13,873
232,7	13,534
232,9	13,21
233,2	12,316
233,5	11,765
233,7	12,18
234	11,113
234,2	9,902
234,5	11,69
234,8	14,183
235	12,844
235,3	12,395
235,6	12,719
235,8	12,885
236,1	13,922
236,4	14,137
236,6	15,386
236,9	15,306
237,1	17,324
237,4	16,483
237,7	12,044
237,9	11,478
238,2	9,827
238,5	11,448
238,7	10,626
239	11,49
239,2	10,592
239,5	12,093
239,8	8,797
240	8,469
240,3	10,656
240,6	11,154
240,8	10,83
241,1	10,449
241,3	10,098
241,6	9,491
241,9	7,967
242,1	8,627
242,4	9,604
242,7	8,292
242,9	8,201
243,2	7,824
243,4	8,284
243,7	7,443
244	6,202
244,2	6,115
244,5	5,602
244,8	5,561
245	5,908
245,3	7,379
245,5	6,44
245,8	8,08
246,1	7,847
246,3	7,831
246,6	7,345
246,9	8,721
247,1	8,733
247,4	10,411
247,6	12,15
247,9	11,282
248,2	11,426
248,4	9,487
248,7	9,913
248,9	9,759
249,2	10,43
249,5	11,98
249,7	12,55
250	11,61
250,3	10,845
250,5	11,245
250,8	13,986
251	11,746
251,3	13,262
251,6	14,405
251,8	15,122
252,1	15,525
252,4	13,255
252,6	13,417
252,9	12,463
253,1	11,927
253,4	9,053
253,7	10,166
253,9	10,713
254,2	11,131
254,4	11,543
254,7	11,162
255	11,539
255,2	12,798
255,5	11,463
255,8	10,283
256	10,554
256,3	11,018
256,5	9,555
256,8	9,423
257,1	9,574
257,3	8,714
257,6	9,023
257,8	9,397
258,1	11,452
258,4	12,421
258,6	12,406
258,9	10,732
259,2	10,962
259,4	9,717
259,7	6,809
259,9	5,297
260,2	6,557
260,5	8,578
260,7	8,416
261	9,091
261,2	8,431
261,5	8,525
261,8	7,899
262	8,612
262,3	8,382
262,6	8,303
262,8	7,537
263,1	6,217
263,3	3,8
263,6	4,92
263,9	4,388
264,1	4,995
264,4	5,972
264,6	6,655
264,9	5,998
265,2	6,127
265,4	5,799
265,7	6,1
266	4,682
266,2	5,523
266,5	5,305
266,7	4,041
267	2,491
267,3	3,6
267,5	5,595
267,8	7,73
268	8,582
268,3	7,477
268,6	5,953
268,8	7,873
269,1	5,776
269,3	4,78
269,6	4,807
269,9	4,98
270,1	2,846
270,4	4,015
270,6	4,667
270,9	4,362
271,2	3,773
271,4	2,612
271,7	0,454
272	-0,398
272,2	0,553
272,5	-0,794
272,7	-0,025
273	0,873
273,3	1,605
273,5	3,358
273,8	1,903
274	3,54
274,3	1,322
274,6	1,145
274,8	3,864
275,1	4,927
275,3	5,923
275,6	4,573
275,9	3,622
276,1	3,604
276,4	4,279
276,6	5,293
276,9	4,358
277,2	6,76
277,4	7,805
277,7	10,181
277,9	9,827
278,2	11,128
278,5	11,859
278,7	12,81
279	12,798
279,2	12,418
279,5	13,949
279,8	15,45
280	16,781
280,3	13,813
280,5	12,693
280,8	12,723
281,1	12,154
281,3	13,658
281,6	11,758
281,9	13,443
282,1	12,791
282,4	13,028
282,6	14,103
282,9	13,017
283,2	12,104
283,4	10,505
283,7	9,559
283,9	9,619
284,2	11,098
284,5	10,411
284,7	9,536
285	9,027
285,2	7,564
285,5	8,601
285,8	7,153
286	11,418
286,3	11,822
286,5	9,857
286,8	9,216
287,1	10,241
287,3	10,92
287,6	9,932
287,8	10,045
288,1	8,156
288,4	9,159
288,6	12,421
288,9	12,086
289,1	12,482
289,4	8,593
289,7	10,162
289,9	8,39
290,2	10,603
290,4	12,195
290,7	9,838
290,9	7,907
291,2	9,789
291,5	11,852
291,7	13,311
292	14,835
292,2	14,047
292,5	15,506
292,8	16,589
293	15,816
293,3	16,366
293,5	17,641
293,8	17,177
294,1	13,836
294,3	12,459
294,6	13,176
294,8	13,3
295,1	14,145
295,4	13,658
295,6	13,866
295,9	14,582
296,1	14,311
296,4	15,883
296,7	12,327
296,9	12,338
297,2	10,581
297,4	11,882
297,7	10,347
298	11,418
298,2	9,661
298,5	10,305
298,7	12,734
299	14,367
299,3	13,662
299,5	10,977
299,8	11,354
300	10,249
300,3	9,355
300,5	9,019
300,8	8,495
301,1	10,272
301,3	11,23
301,6	8,68
301,8	7,1
302,1	6,345
302,4	7,209
302,6	6,738
302,9	6,96
303,1	5,301
303,4	6,432
303,7	8,846
303,9	7,122
304,2	8,412
304,4	7,613
304,7	9,117
304,9	7,873
305,2	11,343
305,5	12,259
305,7	11,942
306	12,7
306,2	14,258
306,5	13,398
306,8	12,154
307	10,128
307,3	9,86
307,5	10,192
307,8	8,442
308,1	7,119
308,3	8,258
308,6	6,647
308,8	6,938
309,1	7,877
309,3	8,665
309,6	8,646
309,9	11,626
310,1	12,01
310,4	12,063
310,6	13,232
310,9	12,357
311,2	13,413
311,4	13,413
311,7	13,017
311,9	13,191
312,2	13,228
312,5	12,41
312,7	13,481
313	13,153
313,2	11,531
313,5	10,479
313,7	10,705
314	9,167
314,3	6,983
314,5	8,175
314,8	9,31
315	11,512
315,3	10,645
315,6	10,098
315,8	9,053
316,1	9,766
316,3	8,786
316,6	10,256
316,8	9,638
317,1	7,963
317,4	6,066
317,6	6,383
317,9	4,226
318,1	3,57
318,4	4,181
318,6	3,076
318,9	2,846
319,2	1,997
319,4	1,186
319,7	-0,322
319,9	-0,307
320,2	-0,451
320,5	0,602
320,7	-0,481
321	-0,285
321,2	-0,722
321,5	0,277
321,7	1,005
322	2,593
322,3	2,054
322,5	0,949
322,8	-1,088
323	-2,238
323,3	-0,805
323,5	0,817
323,8	3,264
324,1	3,664
324,3	5,154
324,6	4,32
324,8	5,44
325,1	4,792
325,4	5,414
325,6	6,594
325,9	6,809
326,1	8,405
326,4	7,224
326,6	6,764
326,9	7,809
327,2	7,914
327,4	8,137
327,7	9,242
327,9	10,6
328,2	10,675
328,4	9,54
328,7	11,584
329	11,844
329,2	12,093
329,5	10,849
329,7	10,215
330	9,834
330,2	11,803
330,5	12,697
330,8	13,04
331	15,076
331,3	13,666
331,5	12,87
331,8	10,796
332	10,434
332,3	8,461
332,6	9,276
332,8	8,608
333,1	9,185
333,3	9,744
333,6	8,823
333,8	9,672
334,1	8,224
334,4	8,51
334,6	8,393
334,9	6,994
335,1	6,64
335,4	6,07
335,6	6,134
335,9	4,626
336,2	3,694
336,4	4,697
336,7	2,201
336,9	4,286
337,2	4,022
337,4	4,799
337,7	5,35
338	3,132
338,2	2,778
338,5	1,099
338,7	0,994
339	-0,296
339,2	1,646
339,5	-0,081
339,8	0,877
340	1,684
340,3	2,453
340,5	2,269
340,8	4,841
341	4,833
341,3	3,196
341,6	3,664
341,8	3,49
342,1	2,657
342,3	2,604
342,6	4,143
342,8	5,667
343,1	6,225
343,4	6,221
343,6	4,184
343,9	5,173
344,1	6,089
344,4	5,916
344,6	5,478
344,9	4,249
345,1	3,758
345,4	3,788
345,7	3,868
345,9	5,444
346,2	4,603
346,4	4,045
346,7	3,743
346,9	4,373
347,2	2,035
347,5	3,325
347,7	2,657
348	1,02
348,2	1,676
348,5	1,522
348,7	2,88
349	3,457
349,2	5,418
349,5	5,418
349,8	5,87
350	6,881
350,3	6,391
350,5	6,628
350,8	6,063
351	5,776
351,3	6,889
351,6	6,873
351,8	5,406
352,1	4,98
352,3	4,55
352,6	5,267
352,8	5,538
353,1	6,172
353,3	5,395
353,6	3,721
353,9	2,913
354,1	2,416
354,4	4,037
354,6	5,67
354,9	4,211
355,1	6,489
355,4	6,84
355,6	7,707
355,9	7,835
356,2	8,216
356,4	8,669
356,7	4,663
356,9	4,46
357,2	4,166
357,4	4,32
357,7	3,136
358	5,527
358,2	6,021
358,5	5,459
358,7	4,018
359	4,599
359,2	5,323
359,5	5,859
359,7	8,197
360	8,574
360,3	9,596
360,5	9,585
360,8	9,012
361	10,332
361,3	10,132
361,5	11,656
361,8	11,867
362	13,247
362,3	12,372
362,6	12,361
362,8	14,39
363,1	14,56
363,3	14,695
363,6	15,058
363,8	16,279
364,1	14,209
364,3	13,794
364,6	14,597
364,8	15,159
365,1	14,322
365,4	16,404
365,6	17,053
365,9	15,804
366,1	16,449
366,4	15,763
366,6	18,256
366,9	18,482
367,1	17,735
367,4	20,187
367,7	19,972
367,9	20,213
368,2	20,164
368,4	18,414
368,7	19,097
368,9	19,885
369,2	18,58
369,4	18,546
369,7	20,564
370	19,953
370,2	19,625
370,5	19,263
370,7	18,682
371	18,633
371,2	19,202
371,5	20,813
371,7	21,254
372	22,069
372,2	22,514
372,5	23,159
372,8	23,038
373	21,774
373,3	18,384
373,5	20,669
373,8	19,534
374	18,686
374,3	20,485
374,5	20,598
374,8	22,634
375	22,566
375,3	21,307
375,6	20,56
375,8	21,684
376,1	22,269
376,3	24,984
376,6	23,988
376,8	21,179
377,1	24,147
377,3	23,807
377,6	22,046
377,8	22,963
378,1	25,067
378,4	24,856
378,6	24,166
378,9	21,586
379,1	22,038
379,4	20,341
379,6	19,263
379,9	18,482
380,1	18,508
380,4	18,309
380,6	18,441
380,9	19,708
381,2	21,586
381,4	20,409
381,7	22,487
381,9	22,751
382,2	22,465
382,4	21,529
382,7	19,444
382,9	20,243
383,2	21,254
383,4	21,541
383,7	22,536
383,9	21,597
384,2	20,79
384,5	22,284
384,7	24,222
385	23,419
385,2	24,807
385,5	25,474
385,7	25,606
386	25,354
386,2	25,934
386,5	25,561
386,7	27,941
387	26,76
387,2	27,858
387,5	29,819
387,8	31,162
388	32,493
388,3	33,289
388,5	33,764
388,8	34,556
389	35,042
389,3	33,903
389,5	31,788
389,8	33,99
390	32,587
390,3	33,036
390,5	33,078
390,8	34,239
391,1	34,017
391,3	33,949
391,6	33,372
391,8	34,273
392,1	33,911
392,3	35,118
392,6	34,978
392,8	36,215
393,1	39,681
393,3	41,518
393,6	42,755
393,8	43,227
394,1	45,489
394,4	48,405
394,6	49,521
394,9	51,799
395,1	52,165
395,4	50,728
395,6	53,217
395,9	51,678
396,1	51,388
396,4	51,878
396,6	53,206
396,9	51,95
397,1	53,447
397,4	56,193
397,6	55,333
397,9	57,275
398,2	58,882
398,4	61,356
398,7	61,699
398,9	61,676
399,2	63,125
399,4	63,389
399,7	64,034
399,9	64,867
400,2	64,539
400,4	65,173
400,7	65,482
400,9	62,763
401,2	63,924
401,4	64,102
401,7	63,257
401,9	62,193
402,2	59,199
402,5	58,874
402,7	56,555
403	56,676
403,2	58,248
403,5	57,833
403,7	59,523
404	61,107
404,2	61,054
404,5	61,974
404,7	64,924
405	66,693
405,2	66,832
405,5	67,794
405,7	68,846
406	69,483
406,2	69,962
406,5	70,49
406,7	70,739
407	70,049
407,3	71,003
407,5	71,079
407,8	71,965
408	71,346
408,3	72,429
408,5	73,5
408,8	72,825
409	72,987
409,3	72,648
409,5	75,058
409,8	74,892
410	78,15
410,3	79,086
410,5	83,147
410,8	82,782
411	83,457
411,3	84,06
411,5	85,003
411,8	83,675
412	83,996
412,3	83,849
412,6	84,309
412,8	82,495
413,1	81,228
413,3	81,952
413,6	82,099
413,8	82,186
414,1	81,149
414,3	80,745
414,6	81,824
414,8	80,858
415,1	80,142
415,3	80,439
415,6	82,499
415,8	82,714
416,1	82,8
416,3	81,937
416,6	84,724
416,8	83,574
417,1	85,584
417,3	83,385
417,6	85,659
417,8	85,806
418,1	86,214
418,4	85,444
418,6	87,515
418,9	87,914
419,1	88,186
419,4	87,767
419,6	88,344
419,9	89,702
420,1	89,14
420,4	88,684
420,6	89,563
420,9	88,39
421,1	88,405
421,4	88,469
421,6	87,692
421,9	88,412
422,1	87,024
422,4	86,64
422,6	89,023
422,9	88,118
423,1	88,352
423,4	87,847
423,6	89,102
423,9	90,6
424,1	92,018
424,4	88,993
424,6	88,186
424,9	86,866
425,1	87,104
425,4	84,682
425,6	84,969
425,9	83,393
426,2	83,245
426,4	81,767
426,7	81,56
426,9	79,795
427,2	78,184
427,4	78,49
427,7	77,038
427,9	75,959
428,2	74,99
428,4	76,302
428,7	77,177
428,9	77,517
429,2	78,071
429,4	78,663
429,7	77,351
429,9	75,778
430,2	75,02
430,4	74,575
430,7	77,053
430,9	76,389
431,2	75,295
431,4	75,344
431,7	73,756
431,9	72,323
432,2	74,907
432,4	75,989
432,7	75,955
432,9	77,931
433,2	80,349
433,4	79,862
433,7	81,612
433,9	81,277
434,2	81,058
434,4	80,594
434,7	82,453
434,9	83,913
435,2	83,249
435,4	82,751
435,7	84,185
435,9	84,35
436,2	83,709
436,4	84,55
436,7	84,06
436,9	82,808
437,2	81,62
437,4	84,049
437,7	86,508
437,9	87,964
438,2	87,816
438,4	87,639
438,7	88,205
438,9	87,82
439,2	86,116
439,4	84,622
439,7	85,772
439,9	85,12
440,2	84,275
440,5	85,026
440,7	84,124
441	83,381
441,2	83,943
441,5	83,196
441,7	84,185
442	85,516
442,2	85,772
442,5	84,558
442,7	85,584
443	86,202
443,2	88,035
443,5	86,621
443,7	87,258
444	86,508
444,2	86,545
444,5	86,964
444,7	87,971
445	88,801
445,2	88,05
445,5	87,307
445,7	88,001
446	87,964
446,2	87,677
446,5	88,163
446,7	89,77
447	91,313
447,2	92,998
447,5	93,466
447,7	92,252
448	92,335
448,2	93,545
448,5	93,289
448,7	93,462
449	92,433
449,2	92,814
449,5	92,139
449,7	91,245
450	91,516
450,2	93,236
450,5	92,218
450,7	93,93
451	92,934
451,2	95,167
451,5	95,405
451,7	96,774
452	99,078
452,2	98,716
452,5	98,923
452,7	100,108
452,9	99,451
453,2	100,051
453,4	101,201
453,7	102,389
453,9	101,145
454,2	101,001
454,4	100,571
454,7	101,601
454,9	101,454
455,2	100,911
455,4	102,122
455,7	104,818
455,9	102,778
456,2	103,947
456,4	104,543
456,7	105,32
456,9	105,361
457,2	105,041
457,4	106,319
457,7	108,028
457,9	107,628
458,2	108,341
458,4	108,363
458,7	109,774
458,9	108,005
459,2	107,609
459,4	109,302
459,7	109,842
459,9	109,619
460,2	109,532
460,4	108,194
460,7	110,336
460,9	112,878
461,2	112,606
461,4	112,595
461,7	114,65
461,9	115,378
462,2	115,08
462,4	114,564
462,7	116,513
462,9	116,427
463,2	116,487
463,4	114,522
463,7	115,661
463,9	116,012
464,2	114,745
464,4	114,994
464,7	116,317
464,9	116,283
465,2	116,992
465,4	116,08
465,7	116,97
465,9	117,988
466,2	117,849
466,4	118,237
466,6	120,134
466,9	119,21
467,1	116,989
467,4	116,381
467,6	118,026
467,9	117,777
468,1	118,267
468,4	117,445
468,6	115,97
468,9	113,949
469,1	113,425
469,4	113,262
469,6	113,455
469,9	113,168
470,1	115,197
470,4	112,991
470,6	115,156
470,9	117,264
471,1	118,527
471,4	118,03
471,6	118,094
471,9	121,326
472,1	122,167
472,4	121,33
472,6	123,849
472,9	123,208
473,1	124,252
473,4	125,659
473,6	125,859
473,9	124,69
474,1	124,347
474,3	124,279
474,6	126,915
474,8	126,847
475,1	126,413
475,3	125,173
475,6	126,489
475,8	127,801
476,1	129,144
476,3	128,62
476,6	131,094
476,8	131,969
477,1	134,571
477,3	135,552
477,6	138,03
477,8	137,023
478,1	138,573
478,3	138,584
478,6	140,172
478,8	138,946
479,1	139,372
479,3	138,652
479,6	139,316
479,8	139,116
480,1	140,892
480,3	140,888
480,5	141,594
480,8	140,485
481	140,715
481,3	140,326
481,5	141,99
481,8	142,291
482	144,034
482,3	143,709
482,5	143,411
482,8	143,706
483	145,09
483,3	144,822
483,5	146,832
483,8	145,497
484	146,583
484,3	145,256
484,5	146,5
484,8	146,862
485	145,667
485,2	144,339
485,5	146,542
485,7	146,666
486	146,666
486,2	144,935
486,5	148,186
486,7	149,001
487	151,916
487,2	150,389
487,5	152,406
487,7	153,602
488	152,067
488,2	151,569
488,5	152,742
488,7	151,558
489	151,841
489,2	152,516
489,5	152,897
489,7	153,685
489,9	152,652
490,2	153,609
490,4	154,805
490,7	156,351
490,9	155,816
491,2	153,764
491,4	155,808
491,7	157,652
491,9	158,456
492,2	158,961
492,4	157,355
492,7	159,681
492,9	162,242
493,2	161,88
493,4	161,307
493,6	160,489
493,9	162,239
494,1	159,844
494,4	160,164
494,6	159,101
494,9	158,795
495,1	157,588
495,4	156,672
495,6	157,739
495,9	159,542
496,1	160,16
496,4	161,435
496,6	163,174
496,9	165,927
497,1	165,825
497,3	164,547
497,6	165,663
497,8	168,216
498,1	167,19
498,3	165,927
498,6	165,158
498,8	166,082
499,1	166,3
499,3	166,685
499,6	168,854
499,8	168,537
500,1	167,571
500,3	167,036
500,6	166,217
500,8	165,731
501	168,001
501,3	167,217
501,5	164,483
501,8	166,553
502	168,081
502,3	166,828
502,5	165,663
502,8	165,429
503	167,685
503,3	166,372
503,5	164,935
503,8	165,64
504	164,437
504,2	165,112
504,5	162,876
504,7	164,203
505	164,007
505,2	166,21
505,5	166,074
505,7	166,779
506	166,821
506,2	170,189
506,5	169,502
506,7	167,922
506,9	166,64
507,2	165,467
507,4	163,336
507,7	165,135
507,9	165,497
508,2	165,81
508,4	164,943
508,7	163,385
508,9	163,97
509,2	165,927
509,4	165,689
509,7	165,214
509,9	166,64
510,1	167,375
510,4	167,839
510,6	165,105
510,9	167,979
511,1	168,609
511,4	168,899
511,6	169,235
511,9	167,036
512,1	164,599
512,4	164,882
512,6	164,637
512,8	161,522
513,1	160,032
513,3	159,885
513,6	159,191
513,8	157,92
514,1	156,762
514,3	155,903
514,6	156,035
514,8	154,533
515,1	155,669
515,3	153,568
515,5	153,289
515,8	153,066
516	153,183
516,3	153,398
516,5	152,727
516,8	151,844
517	150,468
517,3	149,94
517,5	150,004
517,7	150,057
518	149,732
518,2	149,559
518,5	147,477
518,7	147,198
519	145,056
519,2	144,701
519,5	144,588
519,7	144,302
520	142,476
520,2	142,729
520,4	145,305
520,7	147,183
520,9	147,326
521,2	147,99
521,4	147,017
521,7	149,457
521,9	150,23
522,2	149,276
522,4	151,856
522,6	152,504
522,9	154,153
523,1	154,36
523,4	154,39
523,6	153,617
523,9	155,638
524,1	156,536
524,4	155,638
524,6	155,661
524,8	153,926
525,1	153,489
525,3	154,779
525,6	155,333
525,8	156,242
526,1	156,898
526,3	157,4
526,6	157,652
526,8	156,762
527	158,976
527,3	160,911
527,5	161,405
527,8	161,333
528	159,557
528,3	160,259
528,5	159,998
528,8	159,108
529	158,995
529,2	160,523
529,5	159,964
529,7	162,035
530	161,333
530,2	161,907
530,5	159,81
530,7	158,671
531	157,965
531,2	159,108
531,4	156,785
531,7	157,713
531,9	158,339
532,2	159,055
532,4	159,998
532,7	160,323
532,9	159,572
533,2	158,84
533,4	158,493
533,6	158,052
533,9	156,717
534,1	156,555
534,4	157,302
534,6	158,365
534,9	157,445
535,1	157,494
535,3	157,822
535,6	158,712
535,8	155,925
536,1	156,581
536,3	157,611
536,6	159,636
536,8	157,404
537,1	158,048
537,3	156,536
537,5	156,061
537,8	154,726
538	155,97
538,3	154,707
538,5	154,458
538,8	153,93
539	152,444
539,2	151,637
539,5	150,894
539,7	151,516
540	151,607
540,2	152,342
540,5	151,901
540,7	152,38
540,9	151,731
541,2	151,407
541,4	154,639
541,7	157,796
541,9	158,294
542,2	154,326
542,4	154,439
542,7	154,002
542,9	154,417
543,1	153,907
543,4	156,868
543,6	157,211
543,9	156,472
544,1	154,971
544,4	154,786
544,6	154,19
544,8	154,337
545,1	154,515
545,3	154,484
545,6	154,982
545,8	156,378
546,1	156,276
546,3	156,687
546,5	158,064
546,8	159,836
547	160,677
547,3	159,825
547,5	160,274
547,8	159,319
548	159,35
548,2	159,493
548,5	158,576
548,7	158,829
549	156,193
549,2	155,457
549,5	154,518
549,7	155,001
549,9	154,571
550,2	154,311
550,4	153,225
550,7	153,029
550,9	149,502
551,2	149,514
551,4	149,238
551,6	148,36
551,9	148,318
552,1	147,394
552,4	147,635
552,6	145,044
552,9	146,474
553,1	145,176
553,3	144,596
553,6	143,996
553,8	142,042
554,1	143,472
554,3	140,262
554,5	138,791
554,8	137,23
555	135,009
555,3	133,345
555,5	132,968
555,8	131,792
556	131,166
556,2	129,559
556,5	130,309
556,7	127,786
557	128,737
557,2	128,148
557,5	128,872
557,7	129,646
557,9	128,084
558,2	128,394
558,4	129,766
558,7	127,537
558,9	128,111
559,2	128,412
559,4	127,933
559,6	129,457
559,9	130,257
560,1	129,446
560,4	129,778
560,6	129,05
560,8	129,012
561,1	128,269
561,3	129,585
561,6	127,36
561,8	128,307
562,1	127,36
562,3	127,843
562,5	128,088
562,8	129,336
563	127,62
563,3	127,862
563,5	128,443
563,7	128,356
564	126,527
564,2	126,036
564,5	124,467
564,7	125,697
565	125,327
565,2	123,464
565,4	124,347
565,7	125,584
565,9	124,109
566,2	124,769
566,4	123,31
566,6	124,607
566,9	125,746
567,1	126,214
567,4	124,532
567,6	126,576
567,9	123,83
568,1	125,867
568,3	125,35
568,6	126,651
568,8	126,934
569,1	125,757
569,3	124,931
569,5	125,844
569,8	126,625
570	126,598
570,3	126,485
570,5	128,031
570,7	127,76
571	128,469
571,2	129,499
571,5	129,714
571,7	128,669
572	129,585
572,2	128,495
572,4	129,985
572,7	131,207
572,9	132,007
573,2	130,06
573,4	128,929
573,6	127,718
573,9	128,047
574,1	126,195
574,4	123,325
574,6	122,706
574,8	121,073
575,1	120,541
575,3	121,348
575,6	119,327
575,8	118,833
576	117,886
576,3	115,902
576,5	118,124
576,8	119,35
577	120,017
577,3	120,077
577,5	119,776
577,7	119,24
578	118,905
578,2	118,056
578,5	116,046
578,7	116,083
578,9	116,774
579,2	117,139
579,4	115,853
579,7	114,873
579,9	112,259
580,1	111,89
580,4	111,452
580,6	111,935
580,9	114,549
581,1	114,971
581,3	114,56
581,6	112,161
581,8	112,614
582,1	111,882
582,3	112,354
582,5	112,214
582,8	112,716
583	114,017
583,3	115,831
583,5	114,462
583,7	115,356
584	113,881
584,2	113,753
584,5	112,682
584,7	112,263
584,9	112,893
585,2	112,772
585,4	112,836
585,7	112,746
585,9	112,372
586,1	111,373
586,4	109,57
586,6	110,592
586,9	109,17
587,1	109,57
587,3	109,476
587,6	108,371
587,8	107,213
588,1	105,829
588,3	102,872
588,5	102,51
588,8	101,477
589	103,083
589,3	102,254
589,5	101,194
589,7	102,442
590	101,431
590,2	100,802
590,5	98,471
590,7	97,03
590,9	98,241
591,2	97,158
591,4	97,06
591,7	97,656
591,9	99,24
592,1	98,282
592,4	98,033
592,6	96,623
592,9	96,148
593,1	96,31
593,3	95,835
593,6	95,288
593,8	95,842
594,1	95,144
594,3	96,525
594,5	95,74
594,8	94,937
595	96,721
595,3	97,09
595,5	99,021
595,7	100,715
596	100,941
596,2	101,243
596,4	103,653
596,7	105,071
596,9	105,339
597,2	103,117
597,4	105,078
597,6	104,384
597,9	103,917
598,1	103,69
598,4	104,818
598,6	105,723
598,8	105,448
599,1	103,178
599,3	103,257
599,6	102,725
599,8	103,091
600	105,067
600,3	105,591
600,5	103,743
600,7	105,852
601	107,496
601,2	107,79
601,5	107,172
601,7	107,828
601,9	108,695
602,2	110,434
602,4	109,152
602,7	108,337
602,9	107,315
603,1	107,598
603,4	107,575
603,6	108,393
603,9	107,3
604,1	106,745
604,3	107,194
604,6	107,967
604,8	107,175
605	107,669
605,3	108,473
605,5	107,847
605,8	105,459
606	106,896
606,2	107,722
606,5	107,368
606,7	104,995
607	105,063
607,2	103,321
607,4	100,556
607,7	99,267
607,9	99,553
608,1	99,674
608,4	98,69
608,6	97,89
608,9	97,83
609,1	96,808
609,3	95,876
609,6	95,205
609,8	96,121
610,1	95,431
610,3	92,633
610,5	90,513
610,8	89,427
611	88,786
611,2	87,586
611,5	87,062
611,7	85,806
612	85,799
612,2	84,55
612,4	83,977
612,7	83,095
612,9	83,947
613,1	83,54
613,4	81,665
613,6	80,108
613,9	80,854
614,1	80,477
614,3	80,417
614,6	80,828
614,8	82,201
615	81,982
615,3	82,397
615,5	81,643
615,8	79,165
616	79,267
616,2	78,806
616,5	79,432
616,7	80,16
616,9	79,342
617,2	78,444
617,4	79,915
617,7	80,055
617,9	79,617
618,1	78,346
618,4	77,441
618,6	76,419
618,8	77,818
619,1	79,206
619,3	78,358
619,6	76,974
619,8	75,657
620	75,046
620,3	74,526
620,5	75,261
620,7	73,926
621	73,296
621,2	72,086
621,5	71,648
621,7	71,991
621,9	71,32
622,2	70,057
622,4	70,66
622,6	70,332
622,9	68,341
623,1	70,219
623,4	68,586
623,6	68,514
623,8	68,669
624,1	67,047
624,3	67,243
624,5	67,545
624,8	67,824
625	68,68
625,3	70,57
625,5	72,029
625,7	72,648
626	72,602
626,2	71,693
626,4	70,268
626,7	69,612
626,9	71,339
627,1	71,833
627,4	71,724
627,6	70,505
627,9	69,906
628,1	69,932
628,3	70,136
628,6	70,106
628,8	71,663
629	70,732
629,3	71,339
629,5	72,006
629,8	69,861
630	69,906
630,2	69,412
630,5	69,038
630,7	69,902
630,9	69,951
631,2	67,805
631,4	68,235
631,6	66,742
631,9	64,878
632,1	63,517
632,4	63,988
632,6	62,687
632,8	62,163
633,1	62,336
633,3	62,6
633,5	60,764
633,8	60,164
634	62,585
634,2	62,431
634,5	61,937
634,7	62,631
635	62,593
635,2	62,431
635,4	64,03
635,7	65,644
635,9	65,339
636,1	64,433
636,4	63,928
636,6	62,687
636,8	62,005
637,1	63,487
637,3	63,091
637,5	63,721
637,8	63,37
638	62,963
638,3	62,084
638,5	64,237
638,7	62,774
639	64,648
639,2	65,931
639,4	64,611
639,7	63,826
639,9	62,401
640,1	64,886
640,4	66,168
640,6	64,667
640,9	66,191
641,1	67,073
641,3	65,142
641,6	64,72
641,8	64,584
642	63,728
642,3	63,272
642,5	63,611
642,7	60,813
643	61,001
643,2	59,587
643,4	58,086
643,7	58,441
643,9	58,614
644,1	58,637
644,4	59,96
644,6	60,006
644,9	60,651
645,1	60,628
645,3	60,323
645,6	60,134
645,8	57,637
646	59,527
646,3	57,664
646,5	56,404
646,7	57,792
647	57,105
647,2	57,041
647,4	54,677
647,7	52,678
647,9	54,929
648,1	55,197
648,4	54,009
648,6	53,692
648,9	53,775
649,1	55,831
649,3	56,819
649,6	57,939
649,8	57,931
650	58,524
650,3	55,254
650,5	56,615
650,7	56,86
651	56,453
651,2	57,419
651,4	55,442
651,7	52,734
651,9	51,999
652,1	51,976
652,4	52,071
652,6	53,704
652,8	55,054
653,1	54,812
653,3	53,87
653,5	54,613
653,8	53,96
654	54,597
654,3	53,964
654,5	54,537
654,7	53,221
655	52,32
655,2	50,89
655,4	48,25
655,7	49,649
655,9	51,339
656,1	52,497
656,4	49,951
656,6	48,68
656,8	53,145
657,1	54,303
657,3	53,949
657,5	54,096
657,8	54,435
658	54,843
658,2	54,96
658,5	53,787
658,7	54,937
658,9	55,491
659,2	54,824
659,4	53,078
659,6	52,863
659,9	52,32
660,1	49,91
660,3	49,695
660,6	49,102
660,8	48,869
661	48,835
661,3	46,779
661,5	46,749
661,8	45,818
662	44,894
662,2	45,859
662,5	45,267
662,7	46,975
662,9	44,912
663,2	44,452
663,4	40,356
663,6	39,123
663,9	40,417
664,1	35,159
664,3	34,473
664,6	34,541
664,8	34,398
665	34,711
665,3	35,02
665,5	34,831
665,7	36,065
666	36,672
666,2	35,08
666,4	35,985
666,7	36,355
666,9	35,518
667,1	33,783
667,4	35,608
667,6	34,861
667,8	34,364
668,1	33,568
668,3	34,032
668,5	34,586
668,8	34,737
669	34,748
669,2	37,6
669,5	36,864
669,7	37,094
669,9	35,774
670,2	36,193
670,4	35,046
670,6	36,351
670,9	38,018
671,1	36
671,3	35,797
671,6	33,44
671,8	34,778
672	34,959
672,3	34,13
672,5	34,937
672,7	33,956
673	34,175
673,2	33,078
673,4	35,782
673,7	36,125
673,9	35,744
674,1	35,691
674,4	36,208
674,6	34,741
674,8	35,797
675,1	35,269
675,3	35,216
675,5	36,019
675,8	35,19
676	34,861
676,2	36,374
676,5	33,96
676,7	34,756
676,9	33,7
677,2	34,364
677,4	33,379
677,6	33,715
677,9	34,371
678,1	33,496
678,3	34,948
678,5	34,243
678,8	33,975
679	32,746
679,2	33,179
679,5	33,73
679,7	31,316
679,9	32,221
680,2	30,852
680,4	33,413
680,6	30,619
680,9	30,49
681,1	31,037
681,3	32,893
681,6	32,47
681,8	33,783
682	33,409
682,3	35,197
682,5	35,506
682,7	33,36
683	32,983
683,2	32,338
683,4	31,192
683,7	30,834
683,9	32,527
684,1	34,175
684,4	35,359
684,6	35,635
684,8	34,315
685,1	33,67
685,3	34,043
685,5	34,439
685,7	34,79
686	35,231
686,2	35,178
686,4	35,295
686,7	33,447
686,9	34,605
687,1	34,051
687,4	33,87
687,6	31,282
687,8	32,482
688,1	31,788
688,3	31,09
688,5	29,661
688,8	31,935
689	29,981
689,2	31,305
689,5	30,524
689,7	29,634
689,9	28,718
690,2	28,601
690,4	29,099
690,6	28,446
690,8	29,027
691,1	26,907
691,3	25,523
691,5	23,298
691,8	22,691
692	24,943
692,2	26,745
692,5	25,953
692,7	25,323
692,9	25,274
693,2	24,392
693,4	24,999
693,6	23,932
693,9	24,524
694,1	24,882
694,3	25,222
694,5	24,829
694,8	24,86
695	24,565
695,2	24,241
695,5	24,482
695,7	24,867
695,9	24,237
696,2	24,358
696,4	23,151
696,6	22,48
696,9	21,903
697,1	25,697
697,3	27,537
697,6	27,85
697,8	28,31
698	29,114
698,2	27,537
698,5	28,412
698,7	29,461
698,9	31,048
699,2	30,309
699,4	27,809
699,6	28,884
699,9	27,047
700,1	26,489
700,3	28,563
700,6	28,804
700,8	29,589
701	30,211
701,2	29,48
701,5	29,54
701,7	30,117
701,9	28,771
702,2	29,947
702,4	31,214
702,6	31,712
702,9	29,721
703,1	27,771
703,3	29,449
703,6	30,302
703,8	30,351
704	31,237
704,2	28,25
704,5	27,922
704,7	28,503
704,9	28,567
705,2	27,914
705,4	29,283
705,6	29,084
705,9	29,883
706,1	29,449
706,3	27,752
706,5	26,953
706,8	25,67
707	26,813
707,2	27,575
707,5	26,741
707,7	25,395
707,9	25,214
708,2	23,996
708,4	23,849
708,6	22,868
708,8	22,318
709,1	23,864
709,3	22,106
709,5	20,583
709,8	20,451
710	22,687
710,2	22,808
710,5	22,744
710,7	20,813
710,9	21,465
711,1	20,915
711,4	21,092
711,6	19,893
711,8	20,289
712,1	20,481
712,3	21,296
712,5	21,458
712,8	22,318
713	20,372
713,2	19,557
713,4	20,115
713,7	21,058
713,9	21,175
714,1	23,057
714,4	22,257
714,6	20,982
714,8	20,307
715,1	19,7
715,3	20,432
715,5	19,481
715,7	18,889
716	17,905
716,2	16,694
716,4	17,038
716,7	17,381
716,9	18,018
717,1	16,185
717,3	16,721
717,6	15,846
717,8	16,468
718	15,065
718,3	14,579
718,5	14,594
718,7	15,393
718,9	14,582
719,2	12,64
719,4	12,112
719,6	10,502
719,9	8,48
720,1	9,163
720,3	8,439
720,6	6,692
720,8	5,712
721	5,912
721,2	4,279
721,5	3,638
721,7	4,105
721,9	4,362
722,2	3,792
722,4	3,087
722,6	4,675
722,8	5,848
723,1	7,899
723,3	9,321
723,5	8,714
723,8	8,737
724	6,64
724,2	5,256
724,4	6,025
724,7	7,677
724,9	8,095
725,1	9,517
725,4	12,071
725,6	10,981
725,8	10,215
726	9,57
726,3	9,683
726,5	9,6
726,7	10,2
727	8,755
727,2	7,786
727,4	8,755
727,6	9,943
727,9	11,143
728,1	10,815
728,3	10,551
728,6	11,991
728,8	12,829
729	12,101
729,2	14,235
729,5	14,152
729,7	12,04
729,9	11,708
730,2	10,249
730,4	9,649
730,6	9,943
730,8	8,193
731,1	9,136
731,3	10,226
731,5	8,299
731,7	5,599
732	5,746
732,2	5,146
732,4	3,585
732,7	4,761
732,9	3,913
733,1	3,294
733,3	3,638
733,6	3,441
733,8	3,951
734	8,54
734,3	8,51
734,5	10,434
734,7	11,411
734,9	9,857
735,2	11,444
735,4	11,727
735,6	10,377
735,9	10,969
736,1	12,814
736,3	12,712
736,5	12,58
736,8	13,854
737	12,987
737,2	13,115
737,4	12,21
737,7	12,878
737,9	16,875
738,1	15,691
738,4	16,404
738,6	17,584
738,8	17,882
739	15,597
739,3	15,619
739,5	14,371
739,7	14,469
739,9	17,939
740,2	19,715
740,4	19,512
740,6	19,157
740,9	18,041
741,1	15,393
741,3	15,42
741,5	13,572
741,8	12,61
742	14,522
742,2	14,541
742,4	13,741
742,7	15,503
742,9	14,839
743,1	12,591
743,4	11,18
743,6	11,599
743,8	10,871
744	12,338
744,3	12,312
744,5	11,731
744,7	11,444
744,9	9,702
745,2	12,583
745,4	11,505
745,6	11,316
745,8	11,426
746,1	13,13
746,3	15,435
746,5	17,773
746,8	16,6
747	15,265
747,2	15,344
747,4	17,007
747,7	17,007
747,9	18,573
748,1	18,105
748,3	19,391
748,6	20,277
748,8	19,187
749	18,701
749,2	17,253
749,5	17,219
749,7	16,679
749,9	15,853
750,2	19,104
750,4	18,969
750,6	19,293
750,8	19,93
751,1	20,051
751,3	19,089
751,5	21,099
751,7	22,22
752	21,974
752,2	21,065
752,4	20,311
752,6	19,383
752,9	19,911
753,1	18,852
753,3	17,95
753,5	16,879
753,8	18,15
754	16,943
754,2	16,691
754,4	16,019
754,7	15,348
754,9	14,092
755,1	14,405
755,4	13,406
755,6	13,5
755,8	14,53
756	12,749
756,3	12,24
756,5	10,837
756,7	8,985
756,9	9,438
757,2	6,572
757,4	6,334
757,6	4,686
757,8	3,091
758,1	3,132
758,3	5,014
758,5	4,305
758,7	1,575
759	-0,315
759,2	0,013
759,4	1,201
759,6	2,001
759,9	1,609
760,1	2,864
760,3	1,277
760,5	1,284
760,8	0,62
761	0,187
761,2	-0,055
761,4	0,379
761,7	1,801
761,9	3,487
762,1	3,117
762,3	2,627
762,6	0,172
762,8	0,289
763	0,839
763,2	3,69
763,5	4,365
763,7	4,777
763,9	5,124
764,1	5,527
764,4	5,584
764,6	6,9
764,8	8,367
765	6,723
765,3	4,788
765,5	4,147
765,7	4,294
765,9	5,448
766,2	4,988
766,4	5,09
766,6	4,192
766,8	3,879
767,1	3,166
767,3	3,208
767,5	2,898
767,7	3,03
768	2,789
768,2	2,876
768,4	2,31
768,6	0,835
768,9	-1,126
769,1	-0,53
769,3	0,398
769,5	1,141
769,8	1,586
770	2,744
770,2	0,526
770,4	1,805
770,7	2,178
770,9	2,302
771,1	1,752
771,3	2,514
771,6	2,084
771,8	2,253
772	1,861
772,2	1,925
772,5	2,336
772,7	3,853
772,9	2,996
773,1	1,205
773,4	2,318
773,6	2,993
773,8	2,031
774	1,759
774,3	1,831
774,5	1,518
774,7	1,148
774,9	1,823
775,2	1,767
775,4	2,133
775,6	1,771
775,8	3,268
776	4,471
776,3	4,407
776,5	4,056
776,7	3,464
776,9	3,819
777,2	3,739
777,4	2,593
777,6	2,857
777,8	2,585
778,1	3,521
778,3	2,695
778,5	1,993
778,7	1,488
779	1,499
779,2	2,367
779,4	1,786
779,6	1,575
779,9	0,496
780,1	1,929
780,3	0,884
780,5	-0,598
780,7	-0,409
781	0,639
781,2	0,537
781,4	-0,692
781,6	-0,345
781,9	0,685
782,1	-0,221
782,3	-0,202
782,5	-0,7
782,8	-2,484
783	-1,669
783,2	-2,563
783,4	-1,718
783,7	-2,842
783,9	-4,712
784,1	-5,278
784,3	-5,565
784,5	-5,765
784,8	-8,088
785	-8,857
785,2	-9,178
785,4	-9,136
785,7	-10,004
785,9	-8,092
786,1	-8,31
786,3	-7,594
786,6	-7,669
786,8	-5,957
787	-5,602
787,2	-4,95
787,4	-4,154
787,7	-3,057
787,9	-3,061
788,1	-1,993
788,3	-0,662
788,6	-2,072
788,8	-4,641
789	-5,802
789,2	-6,979
789,5	-6,885
789,7	-7,609
789,9	-10,211
790,1	-11,056
790,3	-11,98
790,6	-10,728
790,8	-10,124
791	-9,351
791,2	-6,824
791,5	-5,244
791,7	-3,939
791,9	-4,068
792,1	-3,362
792,3	-3,125
792,6	-3,37
792,8	-5,655
793	-4,418
793,2	-3,883
793,5	-3,962
793,7	-3,509
793,9	-4,222
794,1	-4,856
794,3	-5,097
794,6	-4,569
794,8	-5,165
795	-5,614
795,2	-6,183
795,5	-4,629
795,7	-4,222
795,9	-2,88
796,1	-3,611
796,3	-3,26
796,6	-1,099
796,8	-0,405
797	2,038
797,2	3,189
797,5	4,007
797,7	4,697
797,9	2,959
798,1	2,223
798,3	10,2
798,6	11,067
798,8	13,809
799	14,183
799,2	14,152
799,5	15,725
799,7	16,728
799,9	14,771
800,1	13,379
800,3	13,093
800,6	12,546
800,8	12,089
801	12,648
801,2	12,772
801,5	12,881
801,7	11,803
801,9	11,475
802,1	12,689
802,3	13,643
802,6	13,345
802,8	12,463
803	13,994
803,2	15,05
803,4	13,47
803,7	14,209
803,9	13,455
804,1	13,213
804,3	12,949
804,6	12,991
804,8	14,201
805	12,565
805,2	2,042
805,4	1,378
805,7	-0,93
805,9	-1,752
806,1	-1,518
806,3	-1,955
806,5	-2,038
806,8	-2,8
807	-1,967
807,2	-1,541
807,4	-1,322
807,6	-2,755
807,9	-4,003
808,1	-4,015
808,3	-3,777
808,5	-0,617
808,8	0,47
809	-0,62
809,2	-0,251
809,4	0,387
809,6	0,179
809,9	-0,96
810,1	-2,367
810,3	-0,824
810,5	-1,405
810,7	-2,363
811	-3,11
811,2	-3,336
811,4	-3,819
811,6	-3,396
811,8	-1,997
812,1	-0,847
812,3	-0,839
812,5	-0,866
812,7	-1,213
812,9	-0,281
813,2	0,809
813,4	0,3
813,6	1,571
813,8	1,163
814	0,839
814,3	1,039
814,5	4,003
814,7	3,807
814,9	2,555
815,2	1,974
815,4	0,451
815,6	-0,556
815,8	-1,239
816	-1,88
816,3	-1,36
816,5	-1,111
816,7	-0,443
816,9	1,167
817,1	0,971
817,4	-0,311
817,6	-0,028
817,8	0,081
818	-1,284
818,2	-1,243
818,5	-2,382
818,7	-3,781
818,9	-4,75
819,1	-3,943
819,3	-3,121
819,6	-1,839
819,8	-0,749
820	-2,121
820,2	-2,725
820,4	-2,51
820,7	-2,393
820,9	-1,035
821,1	-0,451
821,3	-2,272
821,5	-1,371
821,8	0,307
822	-1,209
822,2	0,062
822,4	-0,149
822,6	0,745
822,9	0,081
823,1	-1,526
823,3	-1,454
823,5	-2,265
823,7	-1,609
823,9	-2,665
824,2	-2,864
824,4	-3,079
824,6	-2,231
824,8	-2,48
825	-2,661
825,3	-2,231
825,5	-1,36
825,7	-0,077
825,9	-1,073
826,1	-2,001
826,4	-2,17
826,6	-4,999
826,8	-5,855
827	-5,659
827,2	-5,723
827,5	-4,678
827,7	-4,78
827,9	-5,406
828,1	-4,275
828,3	-4,482
828,6	-4,294
828,8	-2,57
829	-4,592
829,2	-4,897
829,4	-3,951
829,6	-4,316
829,9	-3,264
830,1	-3,034
830,3	-2,623
830,5	-3,408
830,7	-3,136
831	-2,551
831,2	-1,899
831,4	-3,385
831,6	-2,544
831,8	-2,698
832,1	-2,529
832,3	-2,106
832,5	-1,65
832,7	-1,873
832,9	-1,869
833,1	-2,155
833,4	-1,507
833,6	-0,009
833,8	2,408
834	2,766
834,2	2,751
834,5	1,043
834,7	-0,368
834,9	-1,575
835,1	-1,854
835,3	-2,302
835,5	-2,97
835,8	-2,57
836	-2,197
836,2	-3,902
836,4	-3,042
836,6	-3,766
836,9	-4,569
837,1	-4,694
837,3	-4,897
837,5	-5,961
837,7	-6,455
837,9	-7,401
838,2	-4,75
838,4	-6,259
838,6	-4,724
838,8	-3,853
839	-4,656
839,3	-4,354
839,5	-3,649
839,7	-3,415
839,9	-4,075
840,1	-3,815
840,3	-1,427
840,6	-3,758
840,8	-2,861
841	-3,709
841,2	-2,103
841,4	-1,812
841,7	-1,477
841,9	-1,382
842,1	-1,495
842,3	-1,28
842,5	-0,873
842,7	-0,462
843	-0,941
843,2	-2,061
843,4	0,707
843,6	0,933
843,8	2,001
844	1,793
844,3	2,827
844,5	2,642
844,7	2,186
844,9	1,326
845,1	1,691
845,4	0,556
845,6	0,635
845,8	1,918
846	-0,036
846,2	-1,382
846,4	-0,183
846,7	0,123
846,9	0,405
847,1	-1,812
847,3	-0,798
847,5	-2,815
847,7	-3,766
848	-5,625
848,2	-5,078
848,4	-4,675
848,6	-5,595
848,8	-6,444
849	-6,383
849,3	-7,356
849,5	-7,183
849,7	-7,507
849,9	-8,216
850,1	-11,829
850,3	-9,457
850,6	-9,612
850,8	-10,671
851	-12,632
851,2	-12,006
851,4	-12,01
851,6	-13,76
851,9	-13,323
852,1	-12,832
852,3	-15,834
852,5	-16,453
852,7	-16,076
852,9	-14,084
853,2	-14,443
853,4	-14,477
853,6	-15,231
853,8	-16,027
854	-17,611
854,2	-15,57
854,5	-15,269
854,7	-14,967
854,9	-14,628
855,1	-14,662
855,3	-13,707
855,5	-11,667
855,8	-13,006
856	-14,503
856,2	-15,657
856,4	-12,987
856,6	-11,29
856,8	-10,011
857,1	-9,023
857,3	-9,974
857,5	-9,227
857,7	-6,451
857,9	-6,251
858,1	-4,784
858,4	-5,184
858,6	-5,342
858,8	-6,847
859	-4,829
859,2	-6,191
859,4	-5,331
859,7	-6,647
859,9	-6,726
860,1	-6,738
860,3	-6,379
860,5	-6,568
860,7	-5,949
860,9	-7,447
861,2	-6,425
861,4	-6,18
861,6	-5,497
861,8	-5,15
862	-4,78
862,2	-5,342
862,5	-4,482
862,7	-2,955
862,9	-2,838
863,1	-3,954
863,3	-4,282
863,5	-3,898
863,8	-7,281
864	-5,67
864,2	-4,513
864,4	-6,142
864,6	-6,798
864,8	-7,609
865	-6,417
865,3	-5,146
865,5	-5,014
865,7	-4,645
865,9	-3,094
866,1	-4,652
866,3	-4,675
866,6	-4,52
866,8	-5,24
867	-5,61
867,2	-5,761
867,4	-5,108
867,6	-5,584
867,8	-5,297
868,1	-5,365
868,3	-6,266
868,5	-6,428
868,7	-7,99
868,9	-8,929
869,1	-7,952
869,3	-7,262
869,6	-7,179
869,8	-7,194
870	-7,929
870,2	-8,412
870,4	-8,669
870,6	-10,072
870,9	-11,211
871,1	-11,188
871,3	-11,663
871,5	-12,493
871,7	-10,509
871,9	-12,27
872,1	-11,863
872,4	-12,814
872,6	-13,99
872,8	-12,402
873	-11,901
873,2	-12,335
873,4	-10,245
873,6	-10,23
873,9	-9,762
874,1	-10,754
874,3	-11,007
874,5	-12,18
874,7	-12,904
874,9	-12,61
875,1	-12,904
875,4	-12,252
875,6	-13,27
875,8	-13,692
876	-12,493
876,2	-11,437
876,4	-12,78
876,6	-11,939
876,9	-11,003
877,1	-10,43
877,3	-11,377
877,5	-12,979
877,7	-11,837
877,9	-9,781
878,1	-10,803
878,4	-12,881
878,6	-11,701
878,8	-11,463
879	-12,071
879,2	-10,098
879,4	-11,618
879,6	-11,124
879,9	-11,859
880,1	-12,218
880,3	-12,512
880,5	-11,637
880,7	-9,793
880,9	-9,106
881,1	-7,809
881,3	-6,741
881,6	-7,971
881,8	-8,808
882	-8,733
882,2	-6,466
882,4	-5,685
882,6	-6,711
882,8	-7,488
883,1	-6,772
883,3	-7,458
883,5	-7,971
883,7	-6,591
883,9	-6,13
884,1	-4,712
884,3	-7,051
884,6	-8,62
884,8	-5,459
885	-5,32
885,2	-6,183
885,4	-6,508
885,6	-4,795
885,8	-5,489
886	-4,026
886,3	-4,961
886,5	-5,376
886,7	-5,719
886,9	-4,313
887,1	-5,191
887,3	-7,039
887,5	-6,455
887,8	-6,444
888	-7,575
888,2	-6,881
888,4	-6,858
888,6	-6,715
888,8	-7,922
889	-8,284
889,2	-9,363
889,5	-10,471
889,7	-9,51
889,9	-7,635
890,1	-8,118
890,3	-9,2
890,5	-8,133
890,7	-7,899
890,9	-6,972
891,2	-6,557
891,4	-7,948
891,6	-7,477
891,8	-6,493
892	-8,05
892,2	-8,623
892,4	-10,932
892,6	-11,905
892,9	-12,203
893,1	-11,248
893,3	-11,045
893,5	-12,025
893,7	-11,98
893,9	-11,414
894,1	-11,95
894,3	-12,791
894,6	-12,621
894,8	-11,414
895	-9,197
895,2	-8,85
895,4	-8,601
895,6	-10,43
895,8	-10,343
896	-9,283
896,3	-10,547
896,5	-12,263
896,7	-10,883
896,9	-10,849
897,1	-10,95
897,3	-12,033
897,5	-10,573
897,7	-10,479
898	-8,865
898,2	-10,528
898,4	-11,392
898,6	-9,31
898,8	-10,155
899	-8,273
899,2	-6,821
899,4	-5,584
899,6	-5,934
899,9	-6,572
900,1	-4,49
900,3	-4,524
900,5	-2,929
900,7	-3,279
900,9	-4,169
901,1	-2,797
901,3	-4,241
901,6	-5,795
901,8	-5,538
902	-6,794
902,2	-6,5
902,4	-7,202
902,6	-7,137
902,8	-7,831
903	-8,246
903,2	-10,487
903,5	-10,558
903,7	-11,652
903,9	-11,09
904,1	-11,897
904,3	-11,588
904,5	-12,893
904,7	-11,165
904,9	-10,818
905,1	-10,652
905,4	-8,884
905,6	-8,797
905,8	-10,068
906	-10,973
906,2	-10,935
906,4	-10,158
906,6	-12,27
906,8	-10,347
907	-11,833
907,3	-11,539
907,5	-12,451
907,7	-14,164
907,9	-11,972
908,1	-12,821
908,3	-13,87
908,5	-12,606
908,7	-12,135
908,9	-12,301
909,2	-13,323
909,4	-11,678
909,6	-11,414
909,8	-11,497
910	-12,587
910,2	-10,856
910,4	-11,26
910,6	-11,098
910,8	-12,738
911,1	-11,098
911,3	-10,419
911,5	-11,286
911,7	-11,384
911,9	-11,791
912,1	-12,206
912,3	-12,953
912,5	-11,607
912,7	-11,444
912,9	-11,309
913,2	-10,984
913,4	-13,149
913,6	-11,203
913,8	-10,954
914	-8,16
914,2	-7,466
914,4	-8,42
914,6	-8,175
914,8	-7,65
915,1	-6,198
915,3	-6,002
915,5	-3,589
915,7	-2,714
915,9	-2,77
916,1	-3,128
916,3	-3,14
916,5	-2,325
916,7	-2,25
916,9	0,074
917,2	-0,496
917,4	1,748
917,6	-0,62
917,8	-1,333
918	-2,325
918,2	-2,8
918,4	-4,06
918,6	-4,343
918,8	-3,641
919	-4,437
919,2	-3,102
919,5	-2,555
919,7	-4,23
919,9	-3,69
920,1	-5,067
920,3	-5,576
920,5	-5,806
920,7	-5,403
920,9	-6,432
921,1	-5,795
921,3	-7,209
921,6	-8,503
921,8	-8,982
922	-10,773
922,2	-12,764
922,4	-12,712
922,6	-13,594
922,8	-11,324
923	-11,629
923,2	-12,806
923,4	-14,812
923,6	-14,326
923,9	-15,378
924,1	-15,691
924,3	-16,781
924,5	-15,005
924,7	-14,854
924,9	-14,111
925,1	-13,575
925,3	-12,331
925,5	-12,353
925,7	-14,277
925,9	-15,242
926,2	-14,186
926,4	-14,978
926,6	-14,843
926,8	-15,819
927	-16,547
927,2	-16,264
927,4	-16,325
927,6	-17,068
927,8	-15,076
928	-16,004
928,2	-15,537
928,5	-15,035
928,7	-14,247
928,9	-14,118
929,1	-12,18
929,3	-12,41
929,5	-10,63
929,7	-11,177
929,9	-11,041
930,1	-11,92
930,3	-11,626
930,5	-9,378
930,8	-7,567
931	-6,549
931,2	-6,994
931,4	-7,948
931,6	-7,213
931,8	-7,451
932	-8,005
932,2	-8,887
932,4	-10,649
932,6	-11,712
932,8	-12,206
933	-13,824
933,3	-13,217
933,5	-13,421
933,7	-13,907
933,9	-14,224
934,1	-13,756
934,3	-13,345
934,5	-12,678
934,7	-12,636
934,9	-13,311
935,1	-12,014
935,3	-12,04
935,5	-14,084
935,7	-15,125
936	-16,593
936,2	-15,676
936,4	-15,748
936,6	-14,352
936,8	-15,073
937	-16,642
937,2	-18,388
937,4	-19,425
937,6	-19,493
937,8	-18,622
938	-21,446
938,2	-22,314
938,4	-20,553
938,7	-19,7
938,9	-18,916
939,1	-18,497
939,3	-16,479
939,5	-14,986
939,7	-15,163
939,9	-15,993
940,1	-16,049
940,3	-15,174
940,5	-15,182
940,7	-16,453
940,9	-14,722
941,1	-14,597
941,4	-14,469
941,6	-14,895
941,8	-15,661
942	-13,919
942,2	-14,394
942,4	-13,73
942,6	-12,086
942,8	-12,025
943	-12,071
943,2	-11,441
943,4	-11,169
943,6	-10,234
943,8	-10,992
944	-11,588
944,3	-11,61
944,5	-11,033
944,7	-9,129
944,9	-9,917
945,1	-7,918
945,3	-6,576
945,5	-4,618
945,7	-4,743
945,9	-5,682
946,1	-4,973
946,3	-4,905
946,5	-5,131
946,7	-5,256
946,9	-4,068
947,1	-4,316
947,4	-6,428
947,6	-7,816
947,8	-7,292
948	-7,963
948,2	-6,5
948,4	-7,481
948,6	-7,217
948,8	-7,413
949	-8,635
949,2	-8,299
949,4	-8,748
949,6	-9,438
949,8	-9,178
950	-9,902
950,2	-7,137
950,5	-5,98
950,7	-6,791
950,9	-5,482
951,1	-8,495
951,3	-7,488
951,5	-8,955
951,7	-10,932
951,9	-11,939
952,1	-12,365
952,3	-11,659
952,5	-11,652
952,7	-10,619
952,9	-10,117
953,1	-10,818
953,3	-11,55
953,5	-11,286
953,8	-10,075
954	-8,186
954,2	-9,525
954,4	-9,374
954,6	-11,233
954,8	-11,633
955	-11,113
955,2	-9,54
955,4	-10,671
955,6	-11,644
955,8	-10,958
956	-10,256
956,2	-10,615
956,4	-9,8
956,6	-11,95
956,8	-12,21
957	-12,018
957,2	-12,059
957,5	-11,675
957,7	-12,979
957,9	-12,821
958,1	-12,304
958,3	-13,568
958,5	-14,243
958,7	-14,503
958,9	-14,318
959,1	-14,19
959,3	-14,413
959,5	-15,242
959,7	-14,903
959,9	-15,295
960,1	-16,193
960,3	-15,895
960,5	-14,062
960,7	-12,806
960,9	-11,486
961,1	-11,607
961,4	-12,482
961,6	-15,133
961,8	-15,65
962	-15,141
962,2	-13,915
962,4	-15,857
962,6	-15,099
962,8	-16,483
963	-17,06
963,2	-17,354
963,4	-16,698
963,6	-17,916
963,8	-18,701
964	-20,19
964,2	-21,164
964,4	-20,971
964,6	-19,779
964,8	-19,979
965	-19,776
965,2	-20,745
965,5	-20,658
965,7	-19,851
965,9	-19,146
966,1	-20,236
966,3	-19,033
966,5	-16,351
966,7	-18,818
966,9	-18,84
967,1	-20,394
967,3	-21,179
967,5	-19,331
967,7	-19,772
967,9	-18,259
968,1	-16,63
968,3	-14,835
968,5	-16
968,7	-13,779
968,9	-13,481
969,1	-11,976
969,3	-10,132
969,5	-9,842
969,7	-9,649
969,9	-8,292
970,2	-6,828
970,4	-5,508
970,6	-5,244
970,8	-5,52
971	-3,981
971,2	-3,404
971,4	-3,717
971,6	-2,725
971,8	-3,162
972	-4,113
972,2	-1,952
972,4	-3,162
972,6	-4,475
972,8	-6,357
973	-5,271
973,2	-4,837
973,4	-5,225
973,6	-5,067
973,8	-6,063
974	-4,984
974,2	-6,115
974,4	-8,088
974,6	-9,804
974,8	-9,084
975	-9,189
975,2	-10,128
975,5	-11,041
975,7	-10,63
975,9	-10,162
976,1	-10
976,3	-11,309
976,5	-10,988
976,7	-11,109
976,9	-10,577
977,1	-11,294
977,3	-11,905
977,5	-12,851
977,7	-13,187
977,9	-13,194
978,1	-13,368
978,3	-12,783
978,5	-14,786
978,7	-13,428
978,9	-12,7
979,1	-13,051
979,3	-12,165
979,5	-12,983
979,7	-12,923
979,9	-13,078
980,1	-13,579
980,3	-13,628
980,5	-13,247
980,7	-11,708
980,9	-9,593
981,1	-10,796
981,3	-11,135
981,5	-11,252
981,7	-12,15
981,9	-13,711
982,2	-13,262
982,4	-14,303
982,6	-11,81
982,8	-12,881
983	-13,489
983,2	-13,745
983,4	-12,734
983,6	-13,066
983,8	-10,769
984	-10
984,2	-8,737
984,4	-8,676
984,6	-9,657
984,8	-9,329
985	-7,443
985,2	-6,647
985,4	-7,22
985,6	-9,174
985,8	-8,827
986	-6,813
986,2	-5,753
986,4	-6,289
986,6	-3,936
986,8	-4,079
987	-2,966
987,2	-4,267
987,4	-5,538
987,6	-4,622
987,8	-5,429
988	-4,324
988,2	-5,112
988,4	-5,572
988,6	-5,855
988,8	-8,642
989	-7,473
989,2	-7,963
989,4	-6,523
989,6	-7,258
989,8	-7,858
990	-8,559
990,2	-9,378
990,4	-10,524
990,6	-9,472
990,8	-7,624
991	-7,021
991,3	-8,329
991,5	-8,952
991,7	-9,589
991,9	-9,427
992,1	-10,415
992,3	-10,502
992,5	-10,683
992,7	-9,951
992,9	-11,995
993,1	-11,535
993,3	-13,194
993,5	-13,662
993,7	-11,803
993,9	-12,116
994,1	-11,282
994,3	-10,577
994,5	-9,234
994,7	-9,302
994,9	-8,763
995,1	-8,495
995,3	-7,352
995,5	-6,681
995,7	-7,926
995,9	-6,368
996,1	-6,689
996,3	-8,024
996,5	-8,02
996,7	-9,249
996,9	-9,97
997,1	-12,233
997,3	-14,084
997,5	-13,986
997,7	-14,25
997,9	-13,375
998,1	-10,634
998,3	-10,411
998,5	-10,656
998,7	-11,162
998,9	-10,69
999,1	-11,328
999,3	-11,312
999,5	-12,093
999,7	-14,156
999,9	-15,827
1000,1	-16,917
1000,3	-17,226
1000,5	-17,833
1000,7	-17,833
1000,9	-17,509
1001,1	-16,532
1001,3	-15,646
1001,5	-18,169
1001,7	-18,06
1001,9	-18,116
1002,1	-17,799
1002,3	-16,679
1002,5	-17,814
1002,7	-18,06
1002,9	-17,897
1003,1	-18,935
1003,3	-18,55
1003,5	-16,747
1003,7	-17,886
1003,9	-15,797
1004,1	-15,163
1004,3	-16,2
1004,5	-14,873
1004,7	-14,997
1004,9	-16,015
1005,1	-15,959
1005,3	-15,461
1005,5	-16,743
1005,7	-15,156
1005,9	-13,832
1006,1	-12,248
1006,3	-11,818
1006,5	-11,92
1006,7	-11,852
1006,9	-11,754
1007,1	-12,421
1007,3	-13,296
1007,5	-12,316
1007,7	-12,35
1007,9	-12,783
1008,1	-13,594
1008,3	-14,213
1008,5	-13,881
1008,7	-10,249
1008,9	-9,713
1009,1	-8,571
1009,3	-9,525
1009,5	-9,627
1009,7	-10,377
1009,9	-9,683
1010,1	-12,776
1010,3	-12,531
1010,5	-13,926
1010,7	-15,514
1010,9	-17,053
1011,1	-16,298
1011,3	-16,593
1011,5	-17,203
1011,7	-17,121
1011,9	-17,543
1012,1	-15,929
1012,3	-15,442
1012,5	-15,054
1012,7	-14,1
1012,9	-13,771
1013,1	-15,393
1013,3	-14,435
1013,5	-13,262
1013,7	-14,107
1013,9	-14,307
1014,1	-13,606
1014,3	-12,659
1014,5	-13,462
1014,7	-13,93
1014,9	-16,51
1015,1	-15,208
1015,3	-16,781
1015,5	-16,532
1015,7	-16,242
1015,9	-14,975
1016,1	-16,008
1016,3	-13,685
1016,5	-15,57
1016,7	-13,998
1016,9	-14,175
1017,1	-14,051
1017,3	-14,33
1017,5	-14,137
1017,7	-13,621
1017,9	-13,221
1018,1	-12,881
1018,3	-14,499
1018,5	-16,404
1018,7	-16,574
1018,9	-17,139
1019,1	-19,319
1019,2	-19,557
1019,4	-20,206
1019,6	-20,903
1019,8	-21,371
1020	-20,345
1020,2	-20,198
1020,4	-18,569
1020,6	-18,173
1020,8	-19,048
1021	-17,913
1021,2	-19,04
1021,4	-17,792
1021,6	-14,809
1021,8	-14,424
1022	-15,97
1022,2	-14,937
1022,4	-13,968
1022,6	-14,692
1022,8	-15,472
1023	-14,873
1023,2	-13,805
1023,4	-13,236
1023,6	-13,319
1023,8	-10,128
1024	-10,079
1024,2	-12,022
1024,4	-11,539
1024,6	-10,95
1024,8	-11,75
1025	-11,603
1025,2	-10,822
1025,4	-8,556
1025,6	-8,774
1025,8	-9,321
1026	-8,703
1026,2	-8,375
1026,4	-8,605
1026,6	-10,207
1026,8	-9,563
1027	-9,374
1027,2	-8,465
1027,4	-8,85
1027,6	-8,672
1027,8	-11,116
1028	-11,414
1028,1	-9,532
1028,3	-10,189
1028,5	-11,882
1028,7	-11,309
1028,9	-12,504
1029,1	-13,217
1029,3	-14,284
1029,5	-14,944
1029,7	-15,046
1029,9	-18,014
1030,1	-15,608
1030,3	-14,345
1030,5	-12,463
1030,7	-11,98
1030,9	-10,709
1031,1	-10,671
1031,3	-10,826
1031,5	-11,61
1031,7	-11,546
1031,9	-10,66
1032,1	-10,664
1032,3	-12,184
1032,5	-12,961
1032,7	-14,56
1032,9	-15,435
1033,1	-15,295
1033,3	-15,465
1033,5	-15,359
1033,7	-16,555
1033,9	-15,71
1034,1	-16,366
1034,3	-14,745
1034,4	-15,397
1034,6	-15,601
1034,8	-13,617
1035	-12,086
1035,2	-12,01
1035,4	-10,913
1035,6	-10,766
1035,8	-10,422
1036	-11,241
1036,2	-14,68
1036,4	-15,401
1036,6	-17,053
1036,8	-18,218
1037	-18,192
1037,2	-18,309
1037,4	-18,516
1037,6	-18,603
1037,8	-18,029
1038	-19,055
1038,2	-18,87
1038,4	-18,448
1038,6	-17,041
1038,8	-15,68
1039	-14,224
1039,2	-14,503
1039,4	-16,227
1039,5	-15,367
1039,7	-14,541
1039,9	-14,167
1040,1	-14,307
1040,3	-16,54
1040,5	-15,193
1040,7	-16,046
1040,9	-17,332
1041,1	-19,38
1041,3	-19,568
1041,5	-21,458
1041,7	-21,322
1041,9	-21,91
1042,1	-21,808
1042,3	-20,82
1042,5	-20,031
1042,7	-20,236
1042,9	-19,683
1043,1	-20,787
1043,3	-21,207
1043,5	-20,341
1043,7	-20,45
1043,8	-21,337
1044	-20,917
1044,2	-21,977
1044,4	-21,15
1044,6	-22,703
1044,8	-23,169
1045	-25,807
1045,2	-26,101
