Data from mesure_FLMT021711__1__23.txt Node

Date: Mon Nov 04 11:50:42 CET 2024
User: jordan.swietlicki
Spectrometer: FLMT02171
Trigger mode: 0
Integration Time (sec): 1,000000E-1
Scans to average: 15
Electric dark correction enabled: true
Nonlinearity correction enabled: false
Boxcar width: 15
XAxis mode: Wavelengths
Number of Pixels in Spectrum: 3648
>>>>>Begin Spectral Data<<<<<
194,7	-37,581
194,9	-36,49
195,2	-32,791
195,5	-32,793
195,7	-29,083
196	-28,353
196,2	-27,1
196,5	-28,712
196,8	-27,334
197	-26,202
197,3	-26,2
197,6	-23,406
197,8	-23,512
198,1	-21,729
198,4	-20,076
198,6	-19,409
198,9	-15,581
199,2	-11,904
199,4	-7,661
199,7	-1,087
200	-1,826
200,2	-3,931
200,5	-4,285
200,7	-4,266
201	-4,07
201,3	-3,501
201,5	-1,943
201,8	-2,196
202,1	-2,045
202,3	-2,298
202,6	-1,8
202,9	-2,415
203,1	-1,823
203,4	-3,097
203,7	-2,758
203,9	-4,183
204,2	-3,354
204,5	-2,46
204,7	-0,163
205	0,463
205,2	0,81
205,5	2,594
205,8	2,092
206	5,958
206,3	5,916
206,6	6,84
206,8	7,248
207,1	7,704
207,4	9,281
207,6	11,577
207,9	11,249
208,2	12,222
208,4	13,667
208,7	13,339
208,9	15,504
209,2	15,624
209,5	15,96
209,7	16,326
210	16,348
210,3	16,865
210,5	19,592
210,8	19,403
211,1	19,641
211,3	20,659
211,6	20,135
211,9	20,523
212,1	20,704
212,4	20,652
212,6	20,957
212,9	20,339
213,2	18,962
213,4	19,893
213,7	19,939
214	20,391
214,2	16,695
214,5	16,627
214,8	16,175
215	16,277
215,3	19,113
215,5	20,535
215,8	19,162
216,1	19,094
216,3	19,637
216,6	18,724
216,9	19,283
217,1	18,592
217,4	18,392
217,7	18,317
217,9	15,111
218,2	14,715
218,5	14,278
218,7	12,407
219	12,773
219,2	13,731
219,5	13,708
219,8	14,791
220	14,629
220,3	15,647
220,6	16,296
220,8	14,534
221,1	15,545
221,4	15,496
221,6	14,889
221,9	15,666
222,1	14,772
222,4	14,719
222,7	16,016
222,9	13,342
223,2	12,788
223,5	10,45
223,7	10,552
224	9,601
224,2	8,734
224,5	9,315
224,8	9,511
225	9,307
225,3	9,224
225,6	8,568
225,8	10,103
226,1	12,841
226,4	11,525
226,6	10,19
226,9	11,457
227,1	11,611
227,4	11,189
227,7	10,254
227,9	9,401
228,2	9,797
228,5	8,643
228,7	7,874
229	7,938
229,3	7,878
229,5	10,223
229,8	9,669
230	8,704
230,3	7,131
230,6	8,632
230,8	7,304
231,1	9,084
231,4	8,202
231,6	11,97
231,9	10,868
232,1	12,192
232,4	11,63
232,7	10,748
232,9	10,876
233,2	9,744
233,5	9,035
233,7	10,646
234	9,503
234,2	8,281
234,5	10,129
234,8	12,822
235	11,525
235,3	11,057
235,6	11,012
235,8	11,389
236,1	12,863
236,4	12,784
236,6	13,803
236,9	14,674
237,1	15,752
237,4	15,636
237,7	12,377
237,9	11,513
238,2	10,329
238,5	12,547
238,7	11,721
239	11,393
239,2	10,359
239,5	12,694
239,8	9,545
240	8,632
240,3	10,589
240,6	10,729
240,8	10,261
241,1	10,638
241,3	10,412
241,6	9,695
241,9	7,557
242,1	8,202
242,4	8,858
242,7	8,481
242,9	8,553
243,2	9,054
243,4	8,734
243,7	8,375
244	7,127
244,2	6,984
244,5	6,969
244,8	8,096
245	8,074
245,3	9,394
245,5	8,76
245,8	9,597
246,1	10,035
246,3	9,748
246,6	9,65
246,9	11,291
247,1	11,491
247,4	13,218
247,6	13,87
247,9	14,561
248,2	15,141
248,4	12,068
248,7	12,143
248,9	12,23
249,2	11,819
249,5	13,207
249,7	14,172
250	13,143
250,3	11,977
250,5	11,804
250,8	12,671
251	10,74
251,3	11,619
251,6	13,821
251,8	14,598
252,1	14,96
252,4	12,788
252,6	13,161
252,9	11,212
253,1	9,748
253,4	7,606
253,7	8,979
253,9	10,518
254,2	11,219
254,4	11,238
254,7	10,586
255	10,487
255,2	11,664
255,5	10,386
255,8	9,164
256	8,677
256,3	9,409
256,5	9,518
256,8	9,763
257,1	10,129
257,3	9,677
257,6	9,812
257,8	10,306
258,1	12,162
258,4	13,456
258,6	13,55
258,9	13,474
259,2	12,716
259,4	11,989
259,7	9,318
259,9	7,199
260,2	8,372
260,5	10,435
260,7	9,741
261	9,752
261,2	10,061
261,5	10,295
261,8	8,436
262	9,903
262,3	9,537
262,6	9,733
262,8	9,48
263,1	8,609
263,3	6,969
263,6	7,233
263,9	6,116
264,1	5,336
264,4	6,075
264,6	6,784
264,9	5,977
265,2	6,791
265,4	5,939
265,7	6,599
266	5,309
266,2	6,294
266,5	4,71
266,7	2,801
267	0,829
267,3	1,772
267,5	2,677
267,8	4,167
268	5,249
268,3	4,242
268,6	2,537
268,8	4,438
269,1	2,858
269,3	1,708
269,6	0,768
269,9	1,372
270,1	-1,789
270,4	-1,117
270,6	-0,721
270,9	-1,393
271,2	-1,845
271,4	-3,305
271,7	-4,972
272	-5,579
272,2	-3,441
272,5	-5,334
272,7	-4,466
273	-2,973
273,3	-2,641
273,5	-0,378
273,8	-2,147
274	-0,8
274,3	-2,494
274,6	-1,502
274,8	1,696
275,1	3,442
275,3	4,819
275,6	4,016
275,9	3,273
276,1	3,337
276,4	3,069
276,6	4,691
276,9	3,899
277,2	6,32
277,4	6,561
277,7	9,831
277,9	10,08
278,2	10,691
278,5	11,879
278,7	12,373
279	12,373
279,2	12,464
279,5	13,78
279,8	15,586
280	16,88
280,3	13,931
280,5	13,618
280,8	13,06
281,1	12,547
281,3	13,026
281,6	11,389
281,9	12,769
282,1	12,234
282,4	12,222
282,6	12,513
282,9	11,755
283,2	11,083
283,4	8,809
283,7	8,726
283,9	8,515
284,2	9,752
284,5	9,658
284,7	7,35
285	6,584
285,2	5,106
285,5	6,656
285,8	4,713
286	8,323
286,3	9,929
286,5	7,934
286,8	7,708
287,1	8,636
287,3	8,07
287,6	7,919
287,8	8,24
288,1	6,901
288,4	7,229
288,6	9,367
288,9	9,416
289,1	8,949
289,4	6,192
289,7	7,519
289,9	6,399
290,2	8,145
290,4	9,496
290,7	7,968
290,9	6,312
291,2	6,897
291,5	10,012
291,7	10,529
292	12,056
292,2	10,646
292,5	11,909
292,8	14,398
293	13,309
293,3	14,312
293,5	16,141
293,8	16,084
294,1	13,222
294,3	11,125
294,6	10,861
294,8	10,736
295,1	10,797
295,4	11,728
295,6	11,574
295,9	11,619
296,1	11,702
296,4	12,743
296,7	10,148
296,9	9,82
297,2	7,704
297,4	8,979
297,7	8,074
298	8,986
298,2	7,297
298,5	7,746
298,7	9,786
299	11,253
299,3	10,676
299,5	7,847
299,8	8,342
300	7,719
300,3	7,225
300,5	6,795
300,8	5,181
301,1	7,485
301,3	7,855
301,6	5,253
301,8	3,25
302,1	1,934
302,4	3,276
302,6	4,042
302,9	4,076
303,1	3,156
303,4	3,31
303,7	4,257
303,9	2,492
304,2	2,684
304,4	1,934
304,7	3,71
304,9	2,684
305,2	6,837
305,5	7,395
305,7	7,01
306	7,157
306,2	8,458
306,5	8,387
306,8	7,384
307	5,453
307,3	6,101
307,5	6,116
307,8	4,121
308,1	2,462
308,3	4,167
308,6	3,654
308,8	4,272
309,1	4,28
309,3	5,366
309,6	4,853
309,9	7,629
310,1	7,546
310,4	8,643
310,6	9,296
310,9	8,715
311,2	9,141
311,4	8,839
311,7	9,013
311,9	9,778
312,2	10,529
312,5	10,653
312,7	10,537
313	10,503
313,2	9,22
313,5	8,364
313,7	7,014
314	6,071
314,3	4,272
314,5	5,041
314,8	5,833
315	7,433
315,3	6,279
315,6	5,2
315,8	5,532
316,1	6,969
316,3	5,66
316,6	6,294
316,8	5,6
317,1	4,419
317,4	2,33
317,6	1,628
317,9	0,297
318,1	0,746
318,4	0,595
318,6	-0,235
318,9	-0,254
319,2	-0,932
319,4	-1,283
319,7	-1,796
319,9	-1,17
320,2	-0,853
320,5	0,022
320,7	-0,767
321	-1,212
321,2	-2,652
321,5	-1,724
321,7	-0,091
322	1,172
322,3	0,833
322,5	-0,212
322,8	-1,472
323	-2,181
323,3	-1,019
323,5	0,753
323,8	1,572
324,1	0,885
324,3	1,983
324,6	0,768
324,8	2,496
325,1	1,534
325,4	2,247
325,6	3,959
325,9	4,355
326,1	5,336
326,4	3,891
326,6	3,325
326,9	4,525
327,2	4,747
327,4	5,204
327,7	5,192
327,9	5,743
328,2	5,547
328,4	4,291
328,7	7,625
329	9,258
329,2	10,389
329,5	9,541
329,7	9,081
330	8,873
330,2	10,755
330,5	11,924
330,8	11,283
331	12,788
331,3	11,295
331,5	11,943
331,8	10,838
332	11,355
332,3	9,443
332,6	10,333
332,8	9,435
333,1	11,053
333,3	11,683
333,6	12,117
333,8	12,92
334,1	13,011
334,4	12,633
334,6	12,434
334,9	11,487
335,1	11,581
335,4	10,152
335,6	11,393
335,9	9,552
336,2	8,881
336,4	9,903
336,7	7,384
336,9	7,587
337,2	7,338
337,4	7,821
337,7	8,111
338	5,679
338,2	5,373
338,5	2,813
338,7	4,057
339	3,276
339,2	5,437
339,5	3,341
339,8	4,249
340	5,596
340,3	6,622
340,5	6,339
340,8	8,515
341	8,583
341,3	6,607
341,6	6,158
341,8	5,415
342,1	3,582
342,3	3,567
342,6	5,053
342,8	5,818
343,1	5,396
343,4	6,478
343,6	4,099
343,9	5,905
344,1	6,592
344,4	6,06
344,6	5,207
344,9	4,921
345,1	4,596
345,4	4,408
345,7	4,325
345,9	6,55
346,2	5,562
346,4	6,316
346,7	5,283
346,9	5,377
347,2	3,295
347,5	4,536
347,7	3,963
348	1,425
348,2	1,904
348,5	1,96
348,7	4,095
349	3,254
349,2	4,83
349,5	5,091
349,8	5,434
350	5,577
350,3	5,837
350,5	5,377
350,8	5,494
351	6,067
351,3	6,437
351,6	6,92
351,8	5,502
352,1	4,845
352,3	5,064
352,6	6,101
352,8	5,86
353,1	5,645
353,3	5,686
353,6	4,695
353,9	4,943
354,1	4,148
354,4	4,83
354,6	6,641
354,9	6,275
355,1	8,119
355,4	8,73
355,6	9,997
355,9	10,208
356,2	10,695
356,4	11,747
356,7	7,912
356,9	8,892
357,2	8,956
357,4	8,549
357,7	7,516
358	10,42
358,2	10,748
358,5	11,019
358,7	10,156
359	11,151
359,2	11,947
359,5	12,366
359,7	14,365
360	14,96
360,3	16,808
360,5	16,62
360,8	16,16
361	18,347
361,3	17,393
361,5	18,837
361,8	17,71
362	20,082
362,3	19,86
362,6	19,629
362,8	21,131
363,1	21,858
363,3	21,843
363,6	21,636
363,8	24,378
364,1	22,93
364,3	23,009
364,6	23,548
364,8	24,532
365,1	24,366
365,4	26,607
365,6	27,938
365,9	27,338
366,1	27,663
366,4	27,889
366,6	29,141
366,9	29,431
367,1	29,526
367,4	32,132
367,7	33,029
367,9	33,965
368,2	33,444
368,4	31,857
368,7	33,199
368,9	33,293
369,2	32,173
369,4	32,309
369,7	34,398
370	32,965
370,2	33,38
370,5	33,075
370,7	32,053
371	31,906
371,2	32,539
371,5	33,893
371,7	33,531
372	34,802
372,2	35,213
372,5	35,632
372,8	34,904
373	33,603
373,3	31,215
373,5	32,796
373,8	31,359
374	31,219
374,3	32,004
374,5	32,407
374,8	33,976
375	33,244
375,3	32,268
375,6	30,763
375,8	31,6
376,1	31,958
376,3	34,745
376,6	34,794
376,8	32,852
377,1	36,488
377,3	35,964
377,6	34,972
377,8	36,375
378,1	37,352
378,4	38,181
378,6	38,83
378,9	37,314
379,1	37,691
379,4	36,529
379,6	35,609
379,9	34,67
380,1	34,112
380,4	34,395
380,6	34,908
380,9	36,25
381,2	37,559
381,4	37,416
381,7	39,671
381,9	41,263
382,2	41,342
382,4	40,972
382,7	39,475
382,9	40,931
383,2	41,511
383,4	42,99
383,7	44,37
383,9	43,846
384,2	44,201
384,5	45,66
384,7	48,059
385	47,508
385,2	49,975
385,5	50,861
385,7	51,366
386	52,562
386,2	53,614
386,5	53,652
386,7	56,156
387	56,782
387,2	59,271
387,5	62,722
387,8	65,66
388	68,79
388,3	70,891
388,5	73,324
388,8	75,624
389	76,503
389,3	75,123
389,5	74,583
389,8	75,76
390	75,658
390,3	77,125
390,5	77,706
390,8	80,191
391,1	81,478
391,3	82,707
391,6	83,36
391,8	86,007
392,1	86,844
392,3	88,907
392,6	89,914
392,8	92,238
393,1	95,862
393,3	99,366
393,6	101,176
393,8	102,903
394,1	106,939
394,4	111,231
394,6	115,123
394,9	119,328
395,1	122,899
395,4	124,744
395,6	129,009
395,9	131,023
396,1	133,905
396,4	137,729
396,6	142,85
396,9	146,705
397,1	152,566
397,4	159,2
397,6	163,311
397,9	169,963
398,2	176,175
398,4	183,974
398,7	188,591
398,9	193,486
399,2	199,611
399,4	205,151
399,7	210,065
399,9	215,579
400,2	220,467
400,4	227,093
400,7	233,758
400,9	237,465
401,2	242,028
401,4	248,315
401,7	253,32
401,9	257,269
402,2	260,565
402,5	264,02
402,7	265,717
403	269,666
403,2	274,463
403,5	278,785
403,7	283,756
404	288,621
404,2	291,608
404,5	296,711
404,7	303,899
405	310,156
405,2	314,557
405,5	319,965
405,7	324,503
406	327,972
406,2	331,536
406,5	335,379
406,7	338,182
407	339,826
407,3	343,024
407,5	346,445
407,8	350,718
408	353,362
408,3	357,356
408,5	361,335
408,8	364,435
409	369,451
409,3	373,045
409,5	378,491
409,8	381,071
410	386,264
410,3	390,299
410,5	397,989
410,8	399,573
411	401,919
411,3	406,211
411,5	409,406
411,8	412,57
412	415,459
412,3	417,688
412,6	419,728
412,8	421,55
413,1	421,874
413,3	424,465
413,6	426,151
413,8	427,878
414,1	428,127
414,3	430,273
414,6	433,482
414,8	434,833
415,1	435,934
415,3	437,933
415,6	440,445
415,8	441,976
416,1	443,088
416,3	442,187
416,6	445,242
416,8	445,065
417,1	448,319
417,3	446,867
417,6	449,719
417,8	450,744
418,1	452,238
418,4	452,393
418,6	454,848
418,9	456,311
419,1	456,243
419,4	456,718
419,6	457,001
419,9	457,914
420,1	457,608
420,4	458,031
420,6	458,51
420,9	457,986
421,1	457,805
421,4	459,004
421,6	459,573
421,9	460,777
422,1	459,306
422,4	460,188
422,6	462,466
422,9	462,251
423,1	462,247
423,4	462,44
423,6	463,371
423,9	464,175
424,1	466,132
424,4	464,141
424,6	463,134
424,9	460,942
425,1	460,592
425,4	457,212
425,6	457,797
425,9	454,882
426,2	452,811
426,4	450,013
426,7	447,674
426,9	443,552
427,2	439,336
427,4	437,099
427,7	435,855
427,9	432,954
428,2	432,136
428,4	433,528
428,7	434,912
428,9	436,236
429,2	436,922
429,4	438,597
429,7	439,049
429,9	438,268
430,2	438,261
430,4	437,823
430,7	440,467
430,9	441,278
431,2	441,361
431,4	442,621
431,7	443,409
431,9	442,922
432,2	446,773
432,4	450,115
432,7	452,747
432,9	457,533
433,2	462,643
433,4	463,168
433,7	468,025
433,9	470,571
434,2	473,566
434,4	477,194
434,7	482,13
434,9	487,196
435,2	489,281
435,4	491,563
435,7	495,334
435,9	497,039
436,2	497,824
436,4	499,374
436,7	499,615
436,9	498,676
437,2	498,917
437,4	501,983
437,7	506,37
437,9	510,25
438,2	512,547
438,4	513,882
438,7	516,692
438,9	518,649
439,2	519,513
439,4	519,347
439,7	522,338
439,9	522,527
440,2	522,496
440,5	524,243
440,7	524,435
441	524,925
441,2	527,69
441,5	528,297
441,7	529,847
442	532,393
442,2	534,18
442,5	534,682
442,7	537,099
443	539,359
443,2	542,383
443,5	543,496
443,7	545,412
444	545,951
444,2	549,157
444,5	551,895
444,7	555,678
445	557,054
445,2	557,703
445,5	558,544
445,7	558,763
446	560,55
446,2	562,41
446,5	564,069
446,7	567,056
447	569,96
447,2	573,441
447,5	576,036
447,7	577,141
448	579,125
448,2	581,41
448,5	583,541
448,7	586,539
449	585,732
449,2	586,249
449,5	587,784
449,7	588,082
450	589,01
450,2	592,713
450,5	594,226
450,7	598,487
451	599,03
451,2	602,142
451,5	603,824
451,7	606,781
452	609,428
452,2	611,178
452,5	612,909
452,7	615,606
452,9	617,748
453,2	620,083
453,4	622,908
453,7	626,528
453,9	628,399
454,2	629,308
454,4	628,961
454,7	631,299
454,9	632,061
455,2	631,967
455,4	632,845
455,7	636,379
455,9	635,451
456,2	636,636
456,4	637,156
456,7	640,596
456,9	642,889
457,2	644,292
457,4	648,919
457,7	653,075
457,9	654,384
458,2	656,417
458,4	658,288
458,7	661,78
458,9	662,519
459,2	664,194
459,4	667,992
459,7	670,224
459,9	671,22
460,2	672,291
460,4	672,785
460,7	676,108
460,9	678,608
461,2	678,672
461,4	678,005
461,7	680,143
461,9	682,236
462,2	683,458
462,4	683,262
462,7	685,744
462,9	686,328
463,2	688,063
463,4	686,573
463,7	689,281
463,9	689,87
464,2	691,209
464,4	691,74
464,7	694,222
464,9	695,312
465,2	696,504
465,4	696,919
465,7	700,09
465,9	701,98
466,2	702,233
466,4	702,274
466,6	704,529
466,9	704,152
467,1	701,286
467,4	700,705
467,6	702,828
467,9	703,089
468,1	704,79
468,4	703,194
468,6	703,028
468,9	704,148
469,1	706,151
469,4	707,464
469,6	709,161
469,9	710,643
470,1	714,377
470,4	714,369
470,6	718,476
470,9	721,38
471,1	725,551
471,4	726,211
471,6	728,176
471,9	731,51
472,1	734,079
472,4	735,025
472,6	738,423
472,9	738,582
473,1	741,301
473,4	742,829
473,6	745,035
473,9	745,849
474,1	748,704
474,3	750,454
474,6	756,836
474,8	759,725
475,1	763,055
475,3	764,88
475,6	769,165
475,8	772,559
476,1	778,163
476,3	781,007
476,6	785,171
476,8	788,195
477,1	793,464
477,3	797,371
477,6	802,591
477,8	804,922
478,1	809,021
478,3	813,807
478,6	819,721
478,8	822,617
479,1	827,071
479,3	830,998
479,6	834,58
479,8	838,831
480,1	844,692
480,3	848,226
480,5	853,343
480,8	855,953
481	859,423
481,3	862,353
481,5	866,97
481,8	867,882
482	870,907
482,3	869,157
482,5	868,927
482,8	868,361
483	868,972
483,3	869,376
483,5	872,48
483,8	872,265
484	873,359
484,3	873,581
484,5	876,462
484,8	877,899
485	878,563
485,2	878,797
485,5	881,818
485,7	884,462
486	885,608
486,2	886,566
486,5	891,269
486,7	895,048
487	899,378
487,2	900,592
487,5	903,568
487,7	906,427
488	907,464
488,2	908,799
488,5	910,979
488,7	912,02
489	913,6
489,2	916,199
489,5	920,17
489,7	924,681
489,9	928,629
490,2	934,599
490,4	941,58
490,7	947,909
490,9	952,239
491,2	954,837
491,4	960,509
491,7	966,917
491,9	971,48
492,2	974,4
492,4	975,312
492,7	980,068
492,9	985,518
493,2	988,452
493,4	989,995
493,6	990,564
493,9	992,85
494,1	991,586
494,4	991,13
494,6	990,545
494,9	990,662
495,1	990,16
495,4	990,266
495,6	993,2
495,9	995,459
496,1	997,575
496,4	999,774
496,6	1002,173
496,9	1006,419
497,1	1007,449
497,3	1005,899
497,6	1006,834
497,8	1008,467
498,1	1006,035
498,3	1003,723
498,6	1002,229
498,8	1001,535
499,1	1000,668
499,3	999,71
499,6	1001,12
499,8	1000,464
500,1	997,594
500,3	995,897
500,6	992,714
500,8	989,829
501	990,624
501,3	988,776
501,5	986,321
501,8	987,487
502	989,55
502,3	989,402
502,5	989,599
502,8	990,236
503	992,152
503,3	990,59
503,5	989,203
503,8	989,018
504	987,272
504,2	988,452
504,5	984,994
504,7	985,288
505	986,382
505,2	987,272
505,5	988,354
505,7	990,526
506	991,613
506,2	995,007
506,5	994,958
506,7	993,57
506,9	992,861
507,2	992,386
507,4	990,655
507,7	995,693
507,9	997,341
508,2	1000,223
508,4	1001,049
508,7	1000,521
508,9	1001,573
509,2	1002,225
509,4	1001,89
509,7	1001,147
509,9	1001,524
510,1	1000,449
510,4	999,05
510,6	995,441
510,9	996,334
511,1	996,508
511,4	996,689
511,6	997,273
511,9	993,815
512,1	992,382
512,4	992,171
512,6	991,201
512,8	988,09
513,1	983,519
513,3	979,216
513,6	975,078
513,8	970,33
514,1	967,045
514,3	963,066
514,6	960,193
514,8	955,022
515,1	953,113
515,3	947,354
515,5	944,005
515,8	941,991
516	940,954
516,3	939,385
516,5	937,609
516,8	936,519
517	934,483
517,3	932,254
517,5	931,703
517,7	933,117
518	933,668
518,2	933,068
518,5	931,628
518,7	931,039
519	928,52
519,2	927,965
519,5	928,78
519,7	927,86
520	928,769
520,2	928,656
520,4	931,971
520,7	936,772
520,9	939,763
521,2	943,745
521,4	946,506
521,7	950,858
521,9	955,395
522,2	955,886
522,4	960,547
522,6	962,697
522,9	964,028
523,1	964,756
523,4	964,232
523,6	962,689
523,9	964,45
524,1	964,36
524,4	963,27
524,6	963,455
524,8	962,557
525,1	962,112
525,3	961,592
525,6	962,942
525,8	964,605
526,1	965,299
526,3	966,676
526,6	968,226
526,8	967,536
527	971,069
527,3	972,627
527,5	972,001
527,8	973,2
528	972,638
528,3	973,555
528,5	973,649
528,8	972,159
529	970,515
529,2	971,179
529,5	968,188
529,7	970,541
530	969,651
530,2	971,077
530,5	970,055
530,7	969,621
531	969,583
531,2	971,443
531,4	970,017
531,7	972,834
531,9	973,981
532,2	975,886
532,4	977,394
532,7	977,635
532,9	977,036
533,2	974,543
533,4	973,034
533,6	971,952
533,9	969,263
534,1	967,928
534,4	968,784
534,6	967,52
534,9	965,967
535,1	963,598
535,3	961,501
535,6	960,079
535,8	955,014
536,1	954,686
536,3	953,261
536,6	953,434
536,8	950,36
537,1	951,397
537,3	948,746
537,5	946,427
537,8	943,934
538	944,326
538,3	942,614
538,5	940,4
538,8	938,816
539	935,829
539,2	933,106
539,5	931,62
539,7	929,576
540	928,052
540,2	927,124
540,5	925,182
540,7	924,824
540,9	923,032
541,2	922,508
541,4	925,182
541,7	927,087
541,9	925,461
542,2	921,343
542,4	920,834
542,7	920,136
542,9	920,008
543,1	919,057
543,4	921,837
543,6	920,294
543,9	920,43
544,1	920,181
544,4	919,525
544,6	917,635
544,8	918,216
545,1	917,537
545,3	916,549
545,6	916,949
545,8	918,311
546,1	918,292
546,3	918,062
546,5	919,02
546,8	919,744
547	919,955
547,3	918,763
547,5	917,485
547,8	915,953
548	915,38
548,2	915,267
548,5	913,921
548,7	912,819
549	908,667
549,2	906,804
549,5	904,665
549,7	903,53
549,9	901,852
550,2	900,879
550,4	899,355
550,7	898,959
550,9	893,973
551,2	894,498
551,4	893,792
551,6	892,687
551,9	893,053
552,1	892,287
552,4	890,813
552,6	889,108
552,9	889,934
553,1	887,226
553,3	883,945
553,6	882,41
553,8	879,985
554,1	880,747
554,3	877,424
554,5	873,747
554,8	869,602
555	867,015
555,3	862,915
555,5	861,516
555,8	857,666
556	855,214
556,2	850,07
556,5	848,52
556,7	843,738
557	843,243
557,2	840,641
557,5	839,766
557,7	839,427
557,9	835,546
558,2	832,695
558,4	832,842
558,7	827,72
558,9	825,54
559,2	823,108
559,4	819,404
559,6	818,363
559,9	817,179
560,1	815,372
560,4	813,77
560,6	812,54
560,8	811,001
561,1	809,074
561,3	808,995
561,6	804,82
561,8	803,688
562,1	801,592
562,3	801,55
562,5	800,634
562,8	802,391
563	799,966
563,3	799,947
563,5	799,668
563,7	799,921
564	798,446
564,2	798,363
564,5	797,013
564,7	798,589
565	797,76
565,2	794,701
565,4	794,886
565,7	796,014
565,9	793,208
566,2	793,302
566,4	791,854
566,6	792,121
566,9	792,676
567,1	792,121
567,4	789,794
567,6	788,158
567,9	784,639
568,1	783,651
568,3	783,538
568,6	783,077
568,8	782,572
569,1	781,116
569,3	779,178
569,5	779,359
569,8	779,129
570	778,635
570,3	778,559
570,5	778,955
570,7	777,247
571	778,058
571,2	777,888
571,5	776,855
571,7	774,935
572	773,362
572,2	769,945
572,4	768,885
572,7	768,667
572,9	769,085
573,2	765,593
573,4	763,726
573,6	761,335
573,9	760,449
574,1	757,303
574,4	752,695
574,6	750,749
574,8	748,282
575,1	747,185
575,3	745,997
575,6	744,035
575,8	741,426
576	738,687
576,3	734,633
576,5	735,704
576,8	735,044
577	734,011
577,3	733,06
577,5	730,518
577,7	727,78
578	726,019
578,2	725,05
578,5	721,312
578,7	721,143
578,9	720,49
579,2	718,789
579,4	716,689
579,7	715,127
579,9	712,325
580,1	710,522
580,4	707,335
580,6	706,766
580,9	707,89
581,1	707,313
581,3	706,004
581,6	702,802
581,8	702,644
582,1	701,599
582,3	700,969
582,5	699,921
582,8	699,781
583	700,038
583,3	700,75
583,5	698,408
583,7	698,374
584	694,648
584,2	693,034
584,5	689,866
584,7	686,977
584,9	685,057
585,2	680,434
585,4	676,598
585,7	671,163
585,9	665,838
586,1	660,007
586,4	653,852
586,6	651,499
586,9	647,55
587,1	643,707
587,3	639,589
587,6	635,719
587,8	632,227
588,1	628,719
588,3	623,451
588,5	620,671
588,8	615,693
589	614,55
589,3	611,951
589,5	607,799
589,7	607,577
590	604,484
590,2	602,059
590,5	598,348
590,7	593,833
590,9	593,517
591,2	589,851
591,4	586,724
591,7	586,494
591,9	587,595
592,1	586,92
592,4	586,524
592,6	586,886
592,9	587,441
593,1	589,542
593,3	592,023
593,6	593,717
593,8	595,945
594,1	596,028
594,3	597,348
594,5	597,907
594,8	599,66
595	602,429
595,3	604,22
595,5	607,237
595,7	610,62
596	611,936
596,2	614,256
596,4	618,329
596,7	619,664
596,9	622,006
597,2	619,826
597,4	623,266
597,6	623,387
597,9	623,869
598,1	626,328
598,4	628,086
598,6	630,379
598,8	632,672
599,1	632,023
599,3	633,539
599,6	633,196
599,8	635,463
600	638,099
600,3	640,068
600,5	640,479
600,7	642,761
601	644,544
601,2	645,035
601,5	646,087
601,7	647,117
601,9	649,27
602,2	651,012
602,4	650,07
602,7	649,428
602,9	648,587
603,1	648,052
603,4	647,81
603,6	648,24
603,9	645,155
604,1	645,163
604,3	644,311
604,6	644,446
604,8	642,429
605	642,877
605,3	641,637
605,5	639,838
605,8	636,994
606	636,602
606,2	635,052
606,5	633,909
606,7	628,802
607	627,233
607,2	622,968
607,4	618,604
607,7	614,58
607,9	611,137
608,1	608,772
608,4	605,287
608,6	603,07
608,9	600,697
609,1	598,246
609,3	595,508
609,6	592,302
609,8	590,771
610,1	587,411
610,3	581,486
610,5	576,828
610,8	573,607
611	570,375
611,2	567,354
611,5	564,201
611,7	560,177
612	557,635
612,2	554,026
612,4	549,854
612,7	546,509
612,9	544,371
613,1	540,811
613,4	537,492
613,6	535,142
613,9	533,011
614,1	531,457
614,3	529,323
614,6	527,58
614,8	526,46
615	524,062
615,3	522,323
615,5	520,034
615,8	517,292
616	516,602
616,2	513,63
616,5	512,709
616,7	511,065
616,9	508,485
617,2	505,646
617,4	505,71
617,7	506,226
617,9	504,239
618,1	501,893
618,4	499,66
618,6	497,748
618,8	497,597
619,1	497,676
619,3	495,293
619,6	493,268
619,8	491,597
620	490,612
620,3	488,78
620,5	488,791
620,7	486,075
621	483,628
621,2	480,037
621,5	478,201
621,7	477,314
621,9	475,764
622,2	473,17
622,4	473,475
622,6	473,102
622,9	470,066
623,1	469,424
623,4	465,853
623,6	464,657
623,8	462,417
624,1	459,664
624,3	457,872
624,5	457,228
624,8	454,938
625	452,049
625,3	452,136
625,5	451,159
625,7	450,843
626	448,463
626,2	445,125
626,4	442,76
626,7	441,195
626,9	440,411
627,1	438,823
627,4	437,16
627,6	434,753
627,9	432,747
628,1	431,469
628,3	431,163
628,6	430,869
628,8	430,71
629	428,493
629,3	428,044
629,5	427,395
629,8	424,525
630	423,134
630,2	421,614
630,5	420,324
630,7	419,555
630,9	417,948
631,2	415,315
631,4	414,357
631,6	413,215
631,9	410,213
632,1	409,085
632,4	409,1
632,6	407,855
632,8	406,95
633,1	405,363
633,3	405,981
633,5	405,019
633,8	403,797
634	405,385
634,2	405,487
634,5	405,28
634,7	406,222
635	405,102
635,2	405,457
635,4	406,667
635,7	407,169
635,9	406,268
636,1	405,721
636,4	405,351
636,6	402,636
636,8	402,323
637,1	402,066
637,3	400,727
637,5	400,46
637,8	400,12
638	399,438
638,3	398,642
638,5	399,803
638,7	397,823
639	399,705
639,2	400,848
639,4	399,43
639,7	398,491
639,9	395,93
640,1	398,193
640,4	399,298
640,6	397,356
640,9	397,778
641,1	397,616
641,3	395,994
641,6	394,459
641,8	393,807
642	390,669
642,3	389,56
642,5	387,716
642,7	383,907
643	383,303
643,2	380,135
643,4	376,749
643,7	375,436
643,9	374,508
644,1	372,11
644,4	372,166
644,6	370,367
644,9	369,688
645,1	367,667
645,3	365,517
645,6	363,217
645,8	359,37
646	359,928
646,3	355,568
646,5	352,404
646,7	352,309
647	350,544
647,2	349,436
647,4	344,71
647,7	341,248
647,9	340,81
648,1	339,113
648,4	336,748
648,6	335,247
648,9	334,546
649,1	333,173
649,3	334,063
649,6	333,584
649,8	333,068
650	332,012
650,3	327,686
650,5	328,942
650,7	328,723
651	326,845
651,2	327,199
651,4	325,117
651,7	321,742
651,9	321,059
652,1	320,214
652,4	319,177
652,6	319,275
652,8	319,034
653,1	317,337
653,3	313,999
653,5	312,449
653,8	310,337
654	309,243
654,3	307,52
654,5	306,509
654,7	304,559
655	301,78
655,2	300,437
655,4	298,287
655,7	299,373
655,9	299,434
656,1	300,026
656,4	298,393
656,6	296,281
656,8	300,78
657,1	301,636
657,3	301,312
657,5	300,58
657,8	301,203
658	301,225
658,2	302,096
658,5	300,38
658,7	300,972
658,9	301,161
659,2	299,996
659,4	297,589
659,6	297,25
659,9	297,292
660,1	296,371
660,3	297,141
660,6	297,801
660,8	298,77
661	299,26
661,3	297,016
661,5	296,484
661,8	296,869
662	295,881
662,2	297,902
662,5	296,726
662,7	297,582
662,9	294,746
663,2	293,184
663,4	288,843
663,6	287,803
663,9	288,266
664,1	282,869
664,3	281,21
664,6	281,116
664,8	280,007
665	278,016
665,3	276,877
665,5	274,87
665,7	275,353
666	275,213
666,2	273,433
666,4	273,388
666,7	272,687
666,9	271,02
667,1	269,522
667,4	269,994
667,6	269,617
667,8	268,738
668,1	267,38
668,3	266,92
668,5	267,742
668,8	267,403
669	266,026
669,2	267,474
669,5	265,822
669,7	265,89
669,9	263,91
670,2	263,85
670,4	262,662
670,6	263,567
670,9	263,477
671,1	260,079
671,3	259,098
671,6	256,594
671,8	256,771
672	256,786
672,3	256,609
672,5	256,416
672,7	255,119
673	255,172
673,2	253,29
673,4	255,787
673,7	254,961
673,9	254,9
674,1	254,889
674,4	254,067
674,6	252,732
674,8	251,551
675,1	250,959
675,3	249,172
675,5	249,794
675,8	248,297
676	247,95
676,2	249,413
676,5	247,98
676,7	248,719
676,9	247,21
677,2	246,697
677,4	245,472
677,6	245,668
677,9	245,117
678,1	244,231
678,3	245,596
678,5	244,721
678,8	243,443
679	243,115
679,2	242,734
679,5	241,96
679,7	240,769
679,9	241,478
680,2	238,419
680,4	240,192
680,6	236,647
680,9	236,843
681,1	236,164
681,3	236,831
681,6	236,028
681,8	236,805
682	235,968
682,3	236,873
682,5	238,008
682,7	235,662
683	233,724
683,2	230,352
683,4	227,041
683,7	224,499
683,9	223,073
684,1	221,817
684,4	220,667
684,6	218,155
684,8	213,761
685,1	210,884
685,3	208,508
685,5	207,127
685,7	204,563
686	203,857
686,2	200,697
686,4	198,958
686,7	195,477
686,9	193,38
687,1	190,714
687,4	189,775
687,6	186,226
687,8	184,861
688,1	182,854
688,3	181,07
688,5	178,227
688,8	179,456
689	175,775
689,2	176,835
689,5	173,784
689,7	171,732
689,9	169,115
690,2	168,406
690,4	169,401
690,6	167,776
690,8	167,561
691,1	165,589
691,3	164,336
691,5	162,945
691,8	161,957
692	164,612
692,2	166,332
692,5	166
692,7	165,362
692,9	165,404
693,2	164,57
693,4	164,14
693,6	163,967
693,9	165,988
694,1	166,286
694,3	167,52
694,5	167,697
694,8	167,086
695	167,369
695,2	166,309
695,5	165,917
695,7	165,86
695,9	164,325
696,2	164,005
696,4	161,957
696,6	161,202
696,9	160,573
697,1	164,14
697,3	165,358
697,6	166,135
697,8	167,452
698	168,278
698,2	167,112
698,5	168,293
698,7	168,357
698,9	170,661
699,2	169,88
699,4	167,636
699,6	168,387
699,9	166,716
700,1	166,844
700,3	168,285
700,6	169,085
700,8	170,103
701	169,115
701,2	168,719
701,5	167,821
701,7	168,345
701,9	167,463
702,2	167,987
702,4	169,809
702,6	170,061
702,9	169,198
703,1	167,101
703,3	168,998
703,6	169,971
703,8	169,715
704	169,601
704,2	166,365
704,5	165,49
704,7	165,234
704,9	164,57
705,2	164,408
705,4	165,325
705,6	165,11
705,9	165,909
706,1	165,306
706,3	163,876
706,5	162,443
706,8	162,047
707	162,089
707,2	162,334
707,5	161,014
707,7	159,275
707,9	158,332
708,2	158,034
708,4	157,182
708,6	156,545
708,8	155,142
709,1	155,5
709,3	155,032
709,5	152,95
709,8	153,018
710	154,361
710,2	154,342
710,5	153,184
710,7	150,684
710,9	151,178
711,1	150,292
711,4	150,201
711,6	149,779
711,8	148,922
712,1	149,239
712,3	147,923
712,5	147,587
712,8	148,115
713	145,072
713,2	143,575
713,4	142,696
713,7	142,813
713,9	140,704
714,1	141,538
714,4	138,879
714,6	135,673
714,8	133,678
715,1	130,895
715,3	129,119
715,5	126,535
715,7	124,902
716	121,975
716,2	119,441
716,4	116,578
716,7	114,025
716,9	113,58
717,1	109,281
717,3	108,749
717,6	106,66
717,8	106,026
718	103,371
718,3	101,417
718,5	100,727
718,7	100,229
718,9	99,377
719,2	96,352
719,4	96,058
719,6	93,754
719,9	91,182
720,1	91,902
720,3	90,412
720,6	87,485
720,8	86,396
721	86,837
721,2	84,201
721,5	83,371
721,7	83,525
721,9	83,812
722,2	83,235
722,4	82,013
722,6	84,095
722,8	84,729
723,1	86,716
723,3	88,617
723,5	87,814
723,8	88,643
724	86,026
724,2	86,12
724,4	86,641
724,7	87,678
724,9	87,685
725,1	88,888
725,4	90,925
725,6	89,017
725,8	87,878
726	86,196
726,3	85,385
726,5	84,725
726,7	84,242
727	82,021
727,2	80,305
727,4	80,708
727,6	82,172
727,9	82,975
728,1	81,734
728,3	82,096
728,6	84,242
728,8	85,219
729	84,502
729,2	87,014
729,5	87,097
729,7	85,901
729,9	85,868
730,2	85,2
730,4	84,646
730,6	85,762
730,8	85,2
731,1	86,792
731,3	88,138
731,5	86,339
731,7	84,672
732	84,649
732,2	84,265
732,4	83,152
732,7	84,913
732,9	84,091
733,1	84,257
733,3	85,125
733,6	85,57
733,8	87,108
734	92,011
734,3	94,308
734,5	96,658
734,7	98,668
734,9	97,367
735,2	99,875
735,4	100,44
735,6	99,328
735,9	100,399
736,1	102,009
736,3	101,523
736,5	102,322
736,8	103,077
737	101,851
737,2	101,138
737,4	100,478
737,7	100,753
737,9	103,74
738,1	102,764
738,4	102,375
738,6	103,19
738,8	104,11
739	102,337
739,3	103,375
739,5	102,828
739,7	102,59
739,9	106,052
740,2	107,289
740,4	107,225
740,6	106,064
740,9	106,354
741,1	104,012
741,3	102,436
741,5	100,112
741,8	98,162
742	99,679
742,2	99,788
742,4	99,679
742,7	99,98
742,9	100,082
743,1	98,272
743,4	96,914
743,6	97,118
743,8	96,865
744	98,257
744,3	99,369
744,5	99,388
744,7	100,018
744,9	99,358
745,2	101,285
745,4	100,885
745,6	100,931
745,8	101,395
746,1	103,507
746,3	104,578
746,5	107,154
746,8	106,286
747	105,411
747,2	105,656
747,4	106,878
747,7	107,467
747,9	107,308
748,1	105,524
748,3	106,867
748,6	107,67
748,8	107,259
749	106,177
749,2	104,499
749,5	103,925
749,7	103,51
749,9	102,281
750,2	105,539
750,4	105,211
750,6	105,298
750,8	104,167
751,1	103,02
751,3	101,557
751,5	103,405
751,7	103,548
752	101,874
752,2	100,863
752,4	100,388
752,6	99,339
752,9	98,03
753,1	97,008
753,3	96,42
753,5	94,719
753,8	96,001
754	94,021
754,2	93,78
754,4	92,909
754,7	92,136
754,9	90,472
755,1	91,408
755,4	90,167
755,6	90,85
755,8	91,521
756	89,488
756,3	87,81
756,5	85,743
756,7	83,442
756,9	81,813
757,2	78,276
757,4	76,443
757,6	72,143
757,8	70,216
758,1	69,247
758,3	69,375
758,5	65,4
758,7	61,195
759	56,786
759,2	55,191
759,4	53,18
759,6	51,875
759,9	50,748
760,1	49,748
760,3	45,766
760,5	43,706
760,8	40,561
761	39,407
761,2	36,767
761,4	36,186
761,7	35,526
761,9	36,194
762,1	33,765
762,3	32,053
762,6	28,266
762,8	27,297
763	27,451
763,2	30,137
763,5	30,789
763,7	31,31
763,9	31,494
764,1	31,317
764,4	32,237
764,6	34,7
764,8	36,314
765	35,341
765,3	34,368
765,5	35,413
765,7	36,903
765,9	39,822
766,2	40,516
766,4	42,673
766,6	42,511
766,8	42,19
767,1	42,085
767,3	43,816
767,5	44,657
767,7	46,524
768	47,018
768,2	48,836
768,4	48,655
768,6	47,648
768,9	45,781
769,1	47,418
769,3	49,047
769,5	50,465
769,8	51,698
770	52,822
770,2	50,676
770,4	51,261
770,7	51,792
770,9	53,354
771,1	53,282
771,3	54,508
771,6	54,089
771,8	54,463
772	54,712
772,2	53,874
772,5	53,972
772,7	54,73
772,9	53,953
773,1	52,931
773,4	53,501
773,6	54,934
773,8	54,583
774	54,885
774,3	53,991
774,5	52,667
774,7	51,713
774,9	51,291
775,2	50,752
775,4	51
775,6	51,359
775,8	52,419
776	53,029
776,3	52,253
776,5	51,351
776,7	50,582
776,9	50,54
777,2	49,843
777,4	48,647
777,6	48,244
777,8	47,602
778,1	47,719
778,3	45,909
778,5	44,695
778,7	43,737
779	42,979
779,2	43,948
779,4	43,759
779,6	42,669
779,9	42,726
780,1	42,952
780,3	41,214
780,5	39,241
780,7	39,611
781	40,116
781,2	41,055
781,4	40,354
781,6	40,233
781,9	40,35
782,1	38,351
782,3	37,578
782,5	37,48
782,8	36,518
783	37,732
783,2	36,982
783,4	37,193
783,7	35,636
783,9	34,455
784,1	33,606
784,3	33,878
784,5	32,928
784,8	30,091
785	29,051
785,2	28,357
785,4	29,518
785,7	29,043
785,9	30,638
786,1	30,065
786,3	29,65
786,6	30,751
786,8	31,144
787	31,151
787,2	31,487
787,4	32,313
787,7	31,992
787,9	31,838
788,1	31,412
788,3	32,434
788,6	31,125
788,8	29,299
789	28,391
789,2	27,866
789,5	26,565
789,7	24,962
789,9	22,3
790,1	21,108
790,3	20,233
790,6	20,203
790,8	20,124
791	20,116
791,2	21,187
791,5	23,122
791,7	24,216
791,9	24,728
792,1	25,396
792,3	24,004
792,6	23,97
792,8	21,542
793	22,681
793,2	22,869
793,5	22,032
793,7	21,591
793,9	20,874
794,1	19,705
794,3	19,369
794,6	20,614
794,8	19,064
795	18,713
795,2	18,144
795,5	19,29
795,7	19,528
795,9	21,745
796,1	19,943
796,3	20,599
796,6	23,292
796,8	23,563
797	26,082
797,2	27,58
797,5	28,738
797,7	29,382
797,9	28,851
798,1	28,56
798,3	35,56
798,6	36,288
798,8	37,548
799	38,279
799,2	38,724
799,5	39,011
799,7	40,87
799,9	39,656
800,1	38,785
800,3	38,457
800,6	38,11
800,8	37,797
801	38,656
801,2	37,838
801,5	37,634
801,7	36,058
801,9	35,666
802,1	36,914
802,3	37,521
802,6	37,133
802,8	35,473
803	37,6
803,2	38,826
803,4	37,099
803,7	37,299
803,9	35,307
804,1	35,243
804,3	34,474
804,6	33,754
804,8	35,134
805	32,928
805,2	23,62
805,4	22,33
805,7	21,032
805,9	19,233
806,1	19,169
806,3	19,362
806,5	18,389
806,8	16,846
807	17,619
807,2	17,902
807,4	17,695
807,6	15,669
807,9	15,304
808,1	15,025
808,3	15,266
808,5	18,988
808,8	20,154
809	18,121
809,2	19
809,4	19,283
809,6	18,751
809,9	16,718
810,1	15,387
810,3	16,171
810,5	15,994
810,7	14,27
811	11,845
811,2	11,796
811,4	12,758
811,6	12,237
811,8	12,69
812,1	13,584
812,3	13,999
812,5	13,682
812,7	14,127
812,9	13,957
813,2	14,308
813,4	13,116
813,6	14,025
813,8	12,935
814	12,151
814,3	12,709
814,5	15,115
814,7	13,486
814,9	12,03
815,2	11,257
815,4	9,816
815,6	8,534
815,8	7,625
816	6,177
816,3	6,863
816,5	6,626
816,7	7,806
816,9	7,889
817,1	8,055
817,4	6,705
817,6	8,632
817,8	9,473
818	8,896
818,2	7,795
818,5	6,905
818,7	5,939
818,9	4,159
819,1	5,913
819,3	6,188
819,6	6,769
819,8	8,572
820	6,795
820,2	7,12
820,4	6,878
820,7	6,599
820,9	7,497
821,1	7,663
821,3	6,637
821,5	8,006
821,8	9,809
822	8,606
822,2	9,507
822,4	9,609
822,6	10,405
822,9	10,318
823,1	8,526
823,3	8,274
823,5	7,402
823,7	7,938
823,9	6,441
824,2	5,999
824,4	3,97
824,6	4,585
824,8	3,235
825	2,911
825,3	2,88
825,5	4,717
825,7	6,173
825,9	3,759
826,1	2,371
826,4	1,93
826,6	-0,423
826,8	-0,57
827	-0,261
827,2	0,18
827,5	1,87
827,7	1,757
827,9	2,171
828,1	3,424
828,3	3,227
828,6	3,699
828,8	3,865
829	1,949
829,2	1,278
829,4	3,058
829,6	2,533
829,9	3,31
830,1	3,774
830,3	3,386
830,5	3,039
830,7	3,341
831	3,646
831,2	4,94
831,4	4,238
831,6	4,815
831,8	5,437
832,1	5,901
832,3	5,686
832,5	6,184
832,7	5,796
832,9	6,95
833,1	7,568
833,4	8,613
833,6	9,926
833,8	10,982
834	10,85
834,2	10,208
834,5	9,662
834,7	7,293
834,9	6,294
835,1	6,128
835,3	5,192
835,5	4,932
835,8	4,902
836	5,856
836,2	3,578
836,4	4,461
836,6	4,031
836,9	3,408
837,1	3,559
837,3	3,963
837,5	3,171
837,7	2,692
837,9	2,013
838,2	3,952
838,4	3,65
838,6	4,668
838,8	4,645
839	3,793
839,3	3,359
839,5	4,962
839,7	4,657
839,9	3,522
840,1	2,82
840,3	4,661
840,6	2,767
840,8	4,008
841	2,405
841,2	2,466
841,4	3,375
841,7	3,831
841,9	3,325
842,1	3,02
842,3	3,544
842,5	3,691
842,7	3,725
843	4,117
843,2	2,371
843,4	5,185
843,6	6,708
843,8	8,3
844	7,655
844,3	8,692
844,5	8,402
844,7	7,723
844,9	6,55
845,1	6,32
845,4	5,041
845,6	4,842
845,8	6,784
846	5,547
846,2	4,966
846,4	5,283
846,7	5,155
846,9	5,615
847,1	4,114
847,3	5,256
847,5	3,733
847,7	4,521
848	3,669
848,2	3,627
848,4	3,19
848,6	3,239
848,8	3,363
849	3,359
849,3	3,152
849,5	3,322
849,7	2,914
849,9	1,889
850,1	-2,007
850,3	-1,411
850,6	-2,113
850,8	-3,376
851	-5,1
851,2	-4,463
851,4	-4,153
851,6	-4,953
851,9	-4,327
852,1	-3,237
852,3	-5,123
852,5	-7,02
852,7	-6,043
852,9	-5,941
853,2	-5,364
853,4	-4,908
853,6	-5,322
853,8	-7,076
854	-9
854,2	-7,385
854,5	-6,869
854,7	-6,805
854,9	-6,194
855,1	-5,952
855,3	-5,334
855,5	-4,293
855,8	-5,096
856	-6,397
856,2	-7,525
856,4	-5,341
856,6	-3,746
856,8	-2,762
857,1	-1,389
857,3	-2,66
857,5	-1,114
857,7	1,304
857,9	1,711
858,1	3,099
858,4	1,979
858,6	1,76
858,8	0,203
859	2,3
859,2	1,425
859,4	1,594
859,7	1,398
859,9	0,399
860,1	-0,254
860,3	-0,767
860,5	-0,484
860,7	0,274
860,9	-1,902
861,2	-0,77
861,4	-0,046
861,6	0,693
861,8	0,825
862	0,742
862,2	1,017
862,5	1,232
862,7	1,968
862,9	1,975
863,1	1,583
863,3	1,643
863,5	2,175
863,8	-0,778
864	1,741
864,2	2,209
864,4	0,776
864,6	-0,601
864,8	-1,083
865	-0,246
865,3	0,576
865,5	0,335
865,7	0,263
865,9	2,1
866,1	0,602
866,3	-0,45
866,6	0,693
866,8	0,791
867	0,38
867,2	0,252
867,4	0,399
867,6	1,27
867,8	-0,295
868,1	-0,352
868,3	-0,861
868,5	-1,943
868,7	-3,542
868,9	-5,025
869,1	-3,935
869,3	-3,229
869,6	-3,659
869,8	-4,451
870	-5,157
870,2	-5,157
870,4	-5,658
870,6	-6,816
870,9	-8,291
871,1	-9,015
871,3	-8,426
871,5	-8,762
871,7	-6,869
871,9	-8,487
872,1	-8,792
872,4	-10,12
872,6	-11,896
872,8	-10,418
873	-10,282
873,2	-11,044
873,4	-9,622
873,6	-8,709
873,9	-8,392
874,1	-8,736
874,3	-9,675
874,5	-9,92
874,7	-11,956
874,9	-12,703
875,1	-13,009
875,4	-12,202
875,6	-12,688
875,8	-12,458
876	-10,629
876,2	-9,92
876,4	-11,791
876,6	-11,236
876,9	-11,04
877,1	-10,452
877,3	-11,5
877,5	-12,432
877,7	-10,983
877,9	-9,901
878,1	-11,383
878,4	-12,937
878,6	-11,987
878,8	-11,112
879	-11,289
879,2	-9,309
879,4	-10,059
879,6	-8,849
879,9	-9,95
880,1	-9,882
880,3	-10,225
880,5	-9,456
880,7	-7,484
880,9	-6,839
881,1	-6,246
881,3	-3,742
881,6	-4,398
881,8	-5,198
882	-4,779
882,2	-2,332
882,4	-3,787
882,6	-4,794
882,8	-5,496
883,1	-4,191
883,3	-4,791
883,5	-5,602
883,7	-3,712
883,9	-3,897
884,1	-3,086
884,3	-5,175
884,6	-6,944
884,8	-4,119
885	-4,27
885,2	-5,319
885,4	-5,737
885,6	-3,837
885,8	-4,059
886	-3,346
886,3	-4,27
886,5	-4,101
886,7	-5,462
886,9	-4,885
887,1	-5,617
887,3	-7,548
887,5	-6,933
887,8	-6,782
888	-8,736
888,2	-7,465
888,4	-6,646
888,6	-6,601
888,8	-8,441
889	-6,65
889,2	-8,302
889,5	-8,868
889,7	-8,347
889,9	-5,892
890,1	-5,734
890,3	-7,989
890,5	-7,276
890,7	-6,869
890,9	-6,329
891,2	-6,269
891,4	-8,034
891,6	-7,566
891,8	-6,522
892	-7,551
892,2	-9,15
892,4	-11,994
892,6	-12,635
892,9	-12,605
893,1	-11,387
893,3	-9,358
893,5	-10,003
893,7	-10,252
893,9	-9,143
894,1	-9,603
894,3	-10,022
894,6	-10,237
894,8	-10,614
895	-9,46
895,2	-8,886
895,4	-7,785
895,6	-10,067
895,8	-9,724
896	-8,819
896,3	-9,999
896,5	-12,039
896,7	-10,934
896,9	-10,165
897,1	-10,101
897,3	-11,319
897,5	-10,572
897,7	-9,822
898	-8,321
898,2	-9,705
898,4	-10,523
898,6	-9,43
898,8	-9,645
899	-7,468
899,2	-6,167
899,4	-4,991
899,6	-5,832
899,9	-7,291
900,1	-5,918
900,3	-5,779
900,5	-4,825
900,7	-4,644
900,9	-5,775
901,1	-4,508
901,3	-5,726
901,6	-6,597
901,8	-6,627
902	-8,302
902,2	-8,445
902,4	-8,604
902,6	-9,339
902,8	-9,924
903	-10,331
903,2	-12,141
903,5	-12,775
903,7	-13,446
903,9	-12,62
904,1	-12,986
904,3	-12,654
904,5	-13,597
904,7	-12,088
904,9	-10,859
905,1	-10,399
905,4	-8,785
905,6	-9,52
905,8	-10,821
906	-12,024
906,2	-11,643
906,4	-11,666
906,6	-13,427
906,8	-12,058
907	-13,046
907,3	-13,314
907,5	-13,71
907,7	-14,796
907,9	-12,137
908,1	-12,986
908,3	-14,774
908,5	-13,035
908,7	-12,715
908,9	-13,469
909,2	-14,642
909,4	-13,114
909,6	-12,609
909,8	-13,476
910	-13,68
910,2	-12,251
910,4	-12,933
910,6	-11,821
910,8	-13,148
911,1	-11,176
911,3	-10,127
911,5	-10,784
911,7	-10,753
911,9	-9,863
912,1	-9,222
912,3	-10,18
912,5	-7,97
912,7	-8,528
912,9	-8,415
913,2	-7,683
913,4	-8,868
913,6	-7,985
913,8	-8,438
914	-5,692
914,2	-5,39
914,4	-6,541
914,6	-5,979
914,8	-5,319
915,1	-5,443
915,3	-4,67
915,5	-3,097
915,7	-1,536
915,9	-1,615
916,1	-1,902
916,3	-1
916,5	-0,631
916,7	-0,45
916,9	1,632
917,2	0,47
917,4	3,005
917,6	0,546
917,8	-0,736
918	-2,381
918,2	-2,743
918,4	-5,488
918,6	-5,315
918,8	-4,636
919	-6,948
919,2	-5,632
919,5	-4,293
919,7	-5,741
919,9	-5,553
920,1	-6,759
920,3	-7,027
920,5	-8,098
920,7	-7,695
920,9	-8,528
921,1	-7,665
921,3	-8,343
921,6	-9,81
921,8	-10,165
922	-11,334
922,2	-13,235
922,4	-13,657
922,6	-14,547
922,8	-12,488
923	-13,152
923,2	-14,608
923,4	-16,833
923,6	-16,731
923,9	-17,587
924,1	-17,734
924,3	-18,01
924,5	-16,55
924,7	-16,976
924,9	-15,592
925,1	-15,932
925,3	-15,143
925,5	-14,864
925,7	-16,799
925,9	-18,1
926,2	-16,094
926,4	-16,641
926,6	-16,045
926,8	-16,29
927	-17,353
927,2	-16,418
927,4	-15,528
927,6	-16,773
927,8	-15,619
928	-15,717
928,2	-15,834
928,5	-15,226
928,7	-13,752
928,9	-13,088
929,1	-11,293
929,3	-11,157
929,5	-10,523
929,7	-11,281
929,9	-10,595
930,1	-11,036
930,3	-12,134
930,5	-10,014
930,8	-8,558
931	-8,294
931,2	-8,343
931,4	-8,905
931,6	-8,2
931,8	-8,321
932	-9,011
932,2	-9,388
932,4	-10,482
932,6	-12,39
932,8	-13,314
933	-15,211
933,3	-14,974
933,5	-15,181
933,7	-16,482
933,9	-17,889
934,1	-16,599
934,3	-16,226
934,5	-15,087
934,7	-15,279
934,9	-16,214
935,1	-16,373
935,3	-16,633
935,5	-18,787
935,7	-20,819
936	-20,544
936,2	-20,254
936,4	-20,454
936,6	-18,945
936,8	-18,579
937	-19,62
937,2	-21,781
937,4	-22,064
937,6	-22,015
937,8	-21,566
938	-24,432
938,2	-25,443
938,4	-23,158
938,7	-21,23
938,9	-20,906
939,1	-20,239
939,3	-18,839
939,5	-16,829
939,7	-16,92
939,9	-17,055
940,1	-16,675
940,3	-16,271
940,5	-17,086
940,7	-17,991
940,9	-17,531
941,1	-17,482
941,4	-17,55
941,6	-16,626
941,8	-17,595
942	-16,267
942,2	-15,999
942,4	-16,46
942,6	-14,751
942,8	-14,898
943	-15,898
943,2	-14,83
943,4	-15,464
943,6	-14,404
943,8	-14,268
944	-14,529
944,3	-14,578
944,5	-13,91
944,7	-11,496
944,9	-12,654
945,1	-12,511
945,3	-11,949
945,5	-10,022
945,7	-9,113
945,9	-10,802
946,1	-9,946
946,3	-10,618
946,5	-11,244
946,7	-11,048
946,9	-9,988
947,1	-10,233
947,4	-11,183
947,6	-12,258
947,8	-11,896
948	-12,813
948,2	-11,734
948,4	-12,258
948,6	-12,051
948,8	-11,259
949	-11,919
949,2	-11,508
949,4	-11,711
949,6	-12,96
949,8	-12,699
950	-13,718
950,2	-11,406
950,5	-10,738
950,7	-11,447
950,9	-9,973
951,1	-12,748
951,3	-11,877
951,5	-13,427
951,7	-15,234
951,9	-17,406
952,1	-18,085
952,3	-17,101
952,5	-17,368
952,7	-15,464
952,9	-14,759
953,1	-15,249
953,3	-16,32
953,5	-16,29
953,8	-15,958
954	-14,329
954,2	-14,804
954,4	-13,363
954,6	-14,057
954,8	-14,276
955	-13,182
955,2	-12,858
955,4	-13,997
955,6	-14,461
955,8	-13,484
956	-13,175
956,2	-12,786
956,4	-11,485
956,6	-13,639
956,8	-13,488
957	-13,356
957,2	-12,658
957,5	-12,65
957,7	-13,899
957,9	-12,484
958,1	-11,327
958,3	-11,198
958,5	-12,73
958,7	-13,529
958,9	-13,725
959,1	-13,499
959,3	-13,461
959,5	-13,28
959,7	-12,42
959,9	-12,081
960,1	-12,236
960,3	-11,538
960,5	-10,029
960,7	-10,512
960,9	-9,893
961,1	-9,958
961,4	-11,953
961,6	-14,042
961,8	-13,808
962	-13,891
962,2	-12,352
962,4	-14,6
962,6	-14,679
962,8	-16,494
963	-17,282
963,2	-18,817
963,4	-18,206
963,6	-20,506
963,8	-20,868
964	-21,849
964,2	-23,855
964,4	-23,395
964,6	-22,275
964,8	-20,702
965	-20,054
965,2	-20,699
965,5	-21,577
965,7	-20,834
965,9	-21,366
966,1	-22,362
966,3	-21,408
966,5	-18,99
966,7	-20,989
966,9	-19,91
967,1	-20,45
967,3	-20,416
967,5	-18,609
967,7	-18,428
967,9	-16,833
968,1	-15,064
968,3	-12,699
968,5	-13,921
968,7	-11,312
968,9	-9,863
969,1	-8,268
969,3	-6,771
969,5	-5,835
969,7	-5,775
969,9	-3,542
970,2	-2,09
970,4	-1,306
970,6	-0,729
970,8	-0,744
971	0,403
971,2	-0,631
971,4	-0,989
971,6	-0,122
971,8	0,403
972	-0,122
972,2	2,07
972,4	2,266
972,6	0,644
972,8	-1,102
973	-0,578
973,2	-1,532
973,4	-2,509
973,6	-2,777
973,8	-3,505
974	-2,841
974,2	-3,456
974,4	-5,579
974,6	-7,069
974,8	-7,114
975	-8,03
975,2	-9,452
975,5	-11,051
975,7	-10,701
975,9	-10,131
976,1	-10,493
976,3	-11,643
976,5	-10,444
976,7	-10,403
976,9	-9,999
977,1	-10,599
977,3	-11,24
977,5	-12,42
977,7	-12,394
977,9	-11,836
978,1	-11,451
978,3	-11,285
978,5	-12,88
978,7	-13,303
978,9	-12,277
979,1	-12,522
979,3	-10,957
979,5	-11,387
979,7	-10,912
979,9	-10,58
980,1	-11,5
980,3	-12,224
980,5	-11,606
980,7	-10,218
980,9	-9,166
981,1	-9,826
981,3	-9,101
981,5	-9,52
981,7	-9,335
981,9	-10,467
982,2	-10,203
982,4	-10,059
982,6	-8,23
982,8	-11,032
983	-11,466
983,2	-10,885
983,4	-10,463
983,6	-10,682
983,8	-7,947
984	-7,646
984,2	-7,355
984,4	-7,978
984,6	-9,343
984,8	-9,109
985	-7,163
985,2	-6,001
985,4	-7,076
985,6	-9,909
985,8	-10,074
986	-8,355
986,2	-7,201
986,4	-7,978
986,6	-5,402
986,8	-6,507
987	-6,028
987,2	-6,997
987,4	-8,2
987,6	-8,061
987,8	-8,042
988	-7,412
988,2	-7,74
988,4	-7,868
988,6	-8,506
988,8	-11,538
989	-9,101
989,2	-9,316
989,4	-8,626
989,6	-9,079
989,8	-9,588
990	-9,177
990,2	-9,72
990,4	-10,78
990,6	-8,966
990,8	-7,314
991	-7,227
991,3	-9,313
991,5	-10,471
991,7	-11,066
991,9	-10,727
992,1	-11,617
992,3	-11,617
992,5	-12,492
992,7	-11,481
992,9	-12,82
993,1	-13,009
993,3	-13,51
993,5	-13,918
993,7	-12,454
993,9	-11,84
994,1	-12,443
994,3	-11,847
994,5	-11,304
994,7	-11,342
994,9	-10,399
995,1	-10,022
995,3	-9,735
995,5	-8,883
995,7	-10,203
995,9	-8,547
996,1	-9,139
996,3	-11,383
996,5	-11,229
996,7	-11,975
996,9	-13,258
997,1	-15,588
997,3	-16,309
997,5	-15,607
997,7	-15,807
997,9	-15,864
998,1	-13,239
998,3	-12,039
998,5	-12,847
998,7	-13,427
998,9	-12,601
999,1	-12,805
999,3	-12,081
999,5	-13,144
999,7	-14,412
999,9	-16,418
1000,1	-18,636
1000,3	-17,772
1000,5	-18,032
1000,7	-18,157
1000,9	-18,451
1001,1	-18,779
1001,3	-17,523
1001,5	-19,352
1001,7	-20,027
1001,9	-19,816
1002,1	-20,718
1002,3	-20,099
1002,5	-20,695
1002,7	-20,872
1002,9	-21,072
1003,1	-21,841
1003,3	-20,97
1003,5	-19,877
1003,7	-20,51
1003,9	-18,666
1004,1	-17,044
1004,3	-18,1
1004,5	-17,316
1004,7	-17,644
1004,9	-18,621
1005,1	-18,986
1005,3	-18,809
1005,5	-19,616
1005,7	-18,334
1005,9	-18,421
1006,1	-15,645
1006,3	-13,808
1006,5	-14,834
1006,7	-14,634
1006,9	-13,918
1007,1	-14,197
1007,3	-14,819
1007,5	-14,578
1007,7	-14,54
1007,9	-15,577
1008,1	-15,901
1008,3	-16,369
1008,5	-16,158
1008,7	-12,311
1008,9	-12,277
1009,1	-10,795
1009,3	-12,187
1009,5	-11,308
1009,7	-12,515
1009,9	-12,858
1010,1	-14,898
1010,3	-14,068
1010,5	-15,109
1010,7	-16,403
1010,9	-17,116
1011,1	-16,976
1011,3	-17,546
1011,5	-17,93
1011,7	-18,013
1011,9	-18,911
1012,1	-16,377
1012,3	-16,905
1012,5	-17,81
1012,7	-17,5
1012,9	-17,248
1013,1	-18,983
1013,3	-18,006
1013,5	-17,195
1013,7	-18,059
1013,9	-18,225
1014,1	-16,328
1014,3	-16,886
1014,5	-17,376
1014,7	-17,097
1014,9	-20,171
1015,1	-18,594
1015,3	-20,408
1015,5	-20,216
1015,7	-20,978
1015,9	-19,737
1016,1	-20,797
1016,3	-19,299
1016,5	-21,464
1016,7	-19,873
1016,9	-20,393
1017,1	-21,479
1017,3	-21,408
1017,5	-20,518
1017,7	-21,193
1017,9	-20,182
1018,1	-19,492
1018,3	-20,348
1018,5	-21,261
1018,7	-20,623
1018,9	-20,276
1019,1	-22,234
1019,2	-22,69
1019,4	-23,422
1019,6	-23,87
1019,8	-24,15
1020	-23,652
1020,2	-24,708
1020,4	-21,608
1020,6	-21,596
1020,8	-23,267
1021	-21,264
1021,2	-22,641
1021,4	-20,325
1021,6	-17,651
1021,8	-17,093
1022	-18,492
1022,2	-16,135
1022,4	-16,101
1022,6	-16,147
1022,8	-17,286
1023	-17,685
1023,2	-16,015
1023,4	-15,702
1023,6	-16,554
1023,8	-13,031
1024	-12,669
1024,2	-14,679
1024,4	-15,275
1024,6	-15,143
1024,8	-16,765
1025	-16,226
1025,2	-16,124
1025,4	-13,292
1025,6	-12,839
1025,8	-12,797
1026	-11,711
1026,2	-11,436
1026,4	-10,949
1026,6	-13,114
1026,8	-11,376
1027	-10,64
1027,2	-11,64
1027,4	-12,164
1027,6	-12,552
1027,8	-14,811
1028	-15,928
1028,1	-14,317
1028,3	-15,256
1028,5	-16,369
1028,7	-17,086
1028,9	-18,598
1029,1	-18,172
1029,3	-18,357
1029,5	-18,01
1029,7	-18,247
1029,9	-21,027
1030,1	-19,548
1030,3	-18,677
1030,5	-17,195
1030,7	-16,72
1030,9	-14,728
1031,1	-14,91
1031,3	-15,309
1031,5	-16,113
1031,7	-17,025
1031,9	-17,04
1032,1	-17,319
1032,3	-18,658
1032,5	-18,734
1032,7	-20,386
1032,9	-21,038
1033,1	-20,567
1033,3	-20,408
1033,5	-20,212
1033,7	-22,004
1033,9	-21,857
1034,1	-21,321
1034,3	-20,469
1034,4	-20,853
1034,6	-20,416
1034,8	-18,183
1035	-16,607
1035,2	-17,003
1035,4	-16,192
1035,6	-17,074
1035,8	-16,784
1036	-16,92
1036,2	-19,703
1036,4	-19,413
1036,6	-20,465
1036,8	-21,989
1037	-22,29
1037,2	-23,112
1037,4	-22,89
1037,6	-24,187
1037,8	-23,512
1038	-24,221
1038,2	-24,15
1038,4	-23,991
1038,6	-23,754
1038,8	-21,97
1039	-20,966
1039,2	-22,045
1039,4	-22,143
1039,5	-20,887
1039,7	-19,941
1039,9	-18,296
1040,1	-18,485
1040,3	-19,296
1040,5	-17,41
1040,7	-17,757
1040,9	-18,44
1041,1	-19,729
1041,3	-19,68
1041,5	-20,672
1041,7	-19,62
1041,9	-19,092
1042,1	-18,719
1042,3	-17,474
1042,5	-17,087
1042,7	-17,101
1042,9	-15,796
1043,1	-16,33
1043,3	-15,736
1043,5	-14,389
1043,7	-13,348
1043,8	-13,477
1044	-12,066
1044,2	-12,097
1044,4	-10,505
1044,6	-10,579
1044,8	-10,863
1045	-13,23
1045,2	-12,05
