Data from mesure_FLMT021711__25__47.txt Node

Date: Mon Nov 04 12:08:12 CET 2024
User: jordan.swietlicki
Spectrometer: FLMT02171
Trigger mode: 0
Integration Time (sec): 5,000000E-1
Scans to average: 30
Electric dark correction enabled: true
Nonlinearity correction enabled: false
Boxcar width: 30
XAxis mode: Wavelengths
Number of Pixels in Spectrum: 3648
>>>>>Begin Spectral Data<<<<<
194,7	-71,895
194,9	-74,658
195,2	-74,121
195,5	-71,972
195,7	-60,246
196	-59,201
196,2	-54,082
196,5	-49,765
196,8	-50,43
197	-43,922
197,3	-40,906
197,6	-32,948
197,8	-29,469
198,1	-21,93
198,4	-22,343
198,6	-21,092
198,9	-22,011
199,2	-17,821
199,4	-15,688
199,7	-16,065
200	-12,745
200,2	-10,525
200,5	-6,267
200,7	-5,539
201	-0,99
201,3	3,41
201,5	6,878
201,8	11,536
202,1	21,561
202,3	25,349
202,6	32,575
202,9	51,698
203,1	67,205
203,4	85,542
203,7	108,415
203,9	115,561
204,2	112,243
204,5	115,887
204,7	121,055
205	125,044
205,2	128,808
205,5	128,281
205,8	133,532
206	136,192
206,3	144,018
206,6	149,293
206,8	150,239
207,1	151,611
207,4	150,454
207,6	150,436
207,9	146,363
208,2	147,584
208,4	149,404
208,7	157,443
208,9	157,067
209,2	153,245
209,5	158,908
209,7	154,956
210	161,535
210,3	157,569
210,5	157,565
210,8	159,509
211,1	165,297
211,3	173,146
211,6	179,443
211,9	174,992
212,1	180,715
212,4	183,755
212,6	185,672
212,9	190,64
213,2	191,914
213,4	192,15
213,7	188,849
214	185,473
214,2	183,093
214,5	187,304
214,8	186,282
215	188,727
215,3	190,428
215,5	192,914
215,8	196,093
216,1	194,281
216,3	197,388
216,6	197,233
216,9	196,569
217,1	194,065
217,4	188,591
217,7	189,044
217,9	190,281
218,2	183,238
218,5	179,689
218,7	180,511
219	175,554
219,2	175,386
219,5	173,201
219,8	173,693
220	167,215
220,3	168,159
220,6	168,027
220,8	169,099
221,1	168,898
221,4	169,741
221,6	170,575
221,9	168,62
222,1	171,594
222,4	165,007
222,7	160,719
222,9	162,326
223,2	164,666
223,5	163,424
223,7	165,412
224	164,132
224,2	163,674
224,5	161,274
224,8	159,236
225	157,93
225,3	163,699
225,6	168,57
225,8	167,046
226,1	164,927
226,4	164,612
226,6	162,576
226,9	160,98
227,1	161,312
227,4	154,219
227,7	159,856
227,9	163,549
228,2	161,978
228,5	158,452
228,7	157,739
229	157,786
229,3	153,067
229,5	153,102
229,8	155,319
230	158,563
230,3	156,328
230,6	156,294
230,8	164,337
231,1	164,461
231,4	161,955
231,6	160,92
231,9	160,708
232,1	165,299
232,4	161,248
232,7	163,851
232,9	167,088
233,2	170,294
233,5	174,435
233,7	167,943
234	162,641
234,2	159,518
234,5	163,498
234,8	156,493
235	162,223
235,3	163,924
235,6	167,945
235,8	163,599
236,1	165,1
236,4	171,168
236,6	167,756
236,9	166,498
237,1	167,455
237,4	164,086
237,7	161,882
237,9	156,391
238,2	154,978
238,5	161,95
238,7	163,101
239	167,546
239,2	165,285
239,5	167,272
239,8	167,699
240	166,501
240,3	168,979
240,6	169,593
240,8	174,84
241,1	180,068
241,3	183,424
241,6	174,582
241,9	173,331
242,1	170,071
242,4	168,869
242,7	171,033
242,9	172,796
243,2	174,136
243,4	178,571
243,7	174,962
244	172,301
244,2	170,851
244,5	169,625
244,8	169,712
245	167,877
245,3	172,077
245,5	171,9
245,8	169,864
246,1	164,519
246,3	166,637
246,6	164,141
246,9	163,775
247,1	164,191
247,4	165,835
247,6	169,905
247,9	170,126
248,2	163,984
248,4	160,964
248,7	156,209
248,9	155,611
249,2	152,034
249,5	149,522
249,7	155,056
250	159,226
250,3	162,211
250,5	157,248
250,8	159,75
251	162,492
251,3	169,288
251,6	167,104
251,8	168,466
252,1	170,852
252,4	165,276
252,6	164,288
252,9	163,947
253,1	163,908
253,4	165,534
253,7	170,634
253,9	175,619
254,2	174,773
254,4	173,604
254,7	176,011
255	173,505
255,2	173,915
255,5	170,46
255,8	167,586
256	166,771
256,3	166,466
256,5	167,436
256,8	161,051
257,1	158,022
257,3	151,011
257,6	151,684
257,8	152,029
258,1	158,763
258,4	162,887
258,6	158,098
258,9	154,064
259,2	152,226
259,4	151,314
259,7	145,955
259,9	146,818
260,2	146,427
260,5	153,885
260,7	153,255
261	152,192
261,2	152,874
261,5	153,09
261,8	156,963
262	159,921
262,3	162,571
262,6	164,314
262,8	154,531
263,1	151,159
263,3	149,958
263,6	148,97
263,9	151,608
264,1	154,299
264,4	157,881
264,6	154,997
264,9	158,458
265,2	155,671
265,4	153,547
265,7	151,56
266	148,227
266,2	145,36
266,5	150,195
266,7	148,398
267	142,598
267,3	135,733
267,5	131,571
267,8	125,353
268	122,542
268,3	125,306
268,6	127,188
268,8	130,704
269,1	130,586
269,3	134,707
269,6	137,223
269,9	134,256
270,1	134,78
270,4	129,713
270,6	128,446
270,9	131,151
271,2	134,412
271,4	139,716
271,7	144,165
272	147,284
272,2	145,441
272,5	145,729
272,7	146,762
273	148,426
273,3	152,943
273,5	150,977
273,8	158,926
274	154,317
274,3	153,904
274,6	161,563
274,8	162,334
275,1	159,408
275,3	156,818
275,6	156,212
275,9	156,203
276,1	158,731
276,4	149,997
276,6	148,256
276,9	152,214
277,2	149,761
277,4	156,615
277,7	154,244
277,9	160,387
278,2	157,629
278,5	153,044
278,7	161,492
279	166,764
279,2	165,523
279,5	161,378
279,8	158,798
280	158,674
280,3	161,746
280,5	162,375
280,8	154,65
281,1	156,764
281,3	159,204
281,6	162,446
281,9	164,563
282,1	179,254
282,4	180,865
282,6	180,296
282,9	182,509
283,2	185,709
283,4	190,18
283,7	191,86
283,9	195,052
284,2	188,08
284,5	186,663
284,7	190,039
285	190,216
285,2	186,395
285,5	180,351
285,8	185,349
286	183,394
286,3	190,915
286,5	192,291
286,8	184,981
287,1	179,857
287,3	177,715
287,6	183,618
287,8	187,009
288,1	189,977
288,4	189,151
288,6	191,913
288,9	192,094
289,1	186,561
289,4	189,907
289,7	189,778
289,9	190,187
290,2	194,221
290,4	187,757
290,7	189,651
290,9	192,947
291,2	196,882
291,5	196,887
291,7	195,311
292	195,17
292,2	195,253
292,5	197,301
292,8	191,716
293	193,2
293,3	182,315
293,5	183,637
293,8	180,832
294,1	182,889
294,3	188,461
294,6	188,639
294,8	190,694
295,1	194,014
295,4	195,541
295,6	194,007
295,9	198,489
296,1	199,194
296,4	202,811
296,7	208,41
296,9	207,425
297,2	212,332
297,4	214,315
297,7	211,506
298	194,192
298,2	190,49
298,5	191,626
298,7	191,462
299	191,708
299,3	189,608
299,5	195,266
299,8	196,207
300	196,414
300,3	196,005
300,5	189,044
300,8	190,302
301,1	188,755
301,3	194,757
301,6	194,664
301,8	195,276
302,1	194,424
302,4	196,759
302,6	201,839
302,9	205,347
303,1	200,512
303,4	195,904
303,7	194,767
303,9	189,749
304,2	188,867
304,4	189,274
304,7	186,207
304,9	189,073
305,2	192,309
305,5	191,072
305,7	188,499
306	187,585
306,2	189,383
306,5	190,731
306,8	192,745
307	189,11
307,3	190,053
307,5	192,799
307,8	194,358
308,1	196,453
308,3	197,604
308,6	200,46
308,8	201,616
309,1	203,927
309,3	205,913
309,6	206,665
309,9	202,309
310,1	201,148
310,4	198,457
310,6	199,268
310,9	201,747
311,2	202,668
311,4	202,343
311,7	196,53
311,9	192,108
312,2	191,726
312,5	190,358
312,7	194,888
313	190,584
313,2	187,75
313,5	189,415
313,7	192,914
314	194,123
314,3	194,03
314,5	197,284
314,8	196,83
315	199,119
315,3	195,971
315,6	194,689
315,8	198,823
316,1	201,895
316,3	204,885
316,6	206,317
316,8	212,374
317,1	208,632
317,4	207,032
317,6	215,73
317,9	215,562
318,1	220,015
318,4	219,321
318,6	227,103
318,9	233,748
319,2	235,932
319,4	242,306
319,7	251,803
319,9	260,583
320,2	264,81
320,5	275,04
320,7	280,181
321	284,726
321,2	283,918
321,5	296,536
321,7	304,478
322	313,681
322,3	325,555
322,5	334,03
322,8	346,163
323	358,76
323,3	369,092
323,5	379,561
323,8	395,631
324,1	411,401
324,3	428,022
324,6	440,533
324,8	469,214
325,1	482,718
325,4	500,992
325,6	523,356
325,9	544,332
326,1	567,239
326,4	588,233
326,6	610,812
326,9	632,334
327,2	662,631
327,4	689,396
327,7	720,484
327,9	745,836
328,2	774,501
328,4	798,286
328,7	828,522
329	855,853
329,2	886,284
329,5	924,094
329,7	957,58
330	993,703
330,2	1026,813
330,5	1063,824
330,8	1102,312
331	1142,431
331,3	1184,896
331,5	1228,516
331,8	1279,088
332	1325,014
332,3	1371,096
332,6	1424,442
332,8	1481,922
333,1	1543,464
333,3	1594,701
333,6	1653,304
333,8	1706,344
334,1	1764,146
334,4	1822,378
334,6	1886,163
334,9	1953,477
335,1	2022,185
335,4	2093,454
335,6	2160,642
335,9	2226,172
336,2	2293,421
336,4	2357,465
336,7	2419,054
336,9	2491,072
337,2	2554,393
337,4	2619,986
337,7	2693,161
338	2763,28
338,2	2834,275
338,5	2908,93
338,7	2987,853
339	3067,343
339,2	3147,896
339,5	3228,143
339,8	3302,597
340	3381,461
340,3	3463,652
340,5	3533,578
340,8	3617,399
341	3697,354
341,3	3779,022
341,6	3860,609
341,8	3941,454
342,1	4026,486
342,3	4114,351
342,6	4209,111
342,8	4304,702
343,1	4412,086
343,4	4511,844
343,6	4616,249
343,9	4717,317
344,1	4817,764
344,4	4918,116
344,6	5019,75
344,9	5130,432
345,1	5224,966
345,4	5326,204
345,7	5431,917
345,9	5545,506
346,2	5660,584
346,4	5779,03
346,7	5905,792
346,9	6026,231
347,2	6149,577
347,5	6268,283
347,7	6384,625
348	6500,61
348,2	6608,561
348,5	6712,163
348,7	6810,667
349	6904,352
349,2	6988,891
349,5	7074,738
349,8	7156,648
350	7232,874
350,3	7303,599
350,5	7369,476
350,8	7428,171
351	7481,691
351,3	7550,422
351,6	7632,272
351,8	7725,218
352,1	7835,363
352,3	7955,204
352,6	8069,925
352,8	8180,24
353,1	8288,485
353,3	8386,817
353,6	8481,175
353,9	8570,448
354,1	8666,496
354,4	8751,124
354,6	8849,48
354,9	8945,108
355,1	9050,438
355,4	9162,609
355,6	9271,663
355,9	9389,568
356,2	9503,342
356,4	9621,999
356,7	9732,472
356,9	9847,91
357,2	9970,6
357,4	10085,327
357,7	10207,751
358	10336,198
358,2	10476,176
358,5	10613,877
358,7	10754,982
359	10901,141
359,2	11044,098
359,5	11184,989
359,7	11332,309
360	11475,309
360,3	11606,024
360,5	11728,303
360,8	11856,63
361	11983,578
361,3	12108,927
361,5	12234,888
361,8	12359,337
362	12491,897
362,3	12615,367
362,6	12740,046
362,8	12858,139
363,1	12971,797
363,3	13089,28
363,6	13215,633
363,8	13334,636
364,1	13456,565
364,3	13573,757
364,6	13692,413
364,8	13817,212
365,1	13943,432
365,4	14055,239
365,6	14162,758
365,9	14275,333
366,1	14376,56
366,4	14478,365
366,6	14581,036
366,9	14676,641
367,1	14768,572
367,4	14842,36
367,7	14915,39
367,9	14991,746
368,2	15073,343
368,4	15168,721
368,7	15264,356
368,9	15359,407
369,2	15460,204
369,4	15583,46
369,7	15710,68
370	15856,179
370,2	15996,083
370,5	16146,139
370,7	16289,854
371	16434,584
371,2	16560,976
371,5	16662,287
371,7	16749,663
372	16823,845
372,2	16906,366
372,5	16978,806
372,8	17051,14
373	17132,913
373,3	17213,007
373,5	17275,907
373,8	17316,265
374	17347,299
374,3	17352,12
374,5	17330,104
374,8	17297,187
375	17251,405
375,3	17192,846
375,6	17124,24
375,8	17058,605
376,1	16985,848
376,3	16932,559
376,6	16892,561
376,8	16863,033
377,1	16835,351
377,3	16831,482
377,6	16819,787
377,8	16808,863
378,1	16794,826
378,4	16784,09
378,6	16776,204
378,9	16770,16
379,1	16754,085
379,4	16756,444
379,6	16761,557
379,9	16770,26
380,1	16776,963
380,4	16794,114
380,6	16799,713
380,9	16828,356
381,2	16872,568
381,4	16914,993
381,7	16980,454
381,9	17068,848
382,2	17176,161
382,4	17275,808
382,7	17374,219
382,9	17491,272
383,2	17605,185
383,4	17707,165
383,7	17818,816
383,9	17920,83
384,2	18018,474
384,5	18115,639
384,7	18181,954
385	18212,865
385,2	18196,006
385,5	18128,329
385,7	18024,797
386	17905,9
386,2	17775,162
386,5	17655,317
386,7	17580,162
387	17555,311
387,2	17569,172
387,5	17610,664
387,8	17678,203
388	17751,68
388,3	17819,195
388,5	17861,756
388,8	17859,41
389	17838,512
389,3	17804,708
389,5	17766,471
389,8	17752,489
390	17785,635
390,3	17872,771
390,5	18002,873
390,8	18186,281
391,1	18395,677
391,3	18653,143
391,6	18916,926
391,8	19187,446
392,1	19450,01
392,3	19694,3
392,6	19934,999
392,8	20164,889
393,1	20388,15
393,3	20606,127
393,6	20833,448
393,8	21071,072
394,1	21317,585
394,4	21571,228
394,6	21813,356
394,9	22054,897
395,1	22289,983
395,4	22527,922
395,6	22770,649
395,9	22997,962
396,1	23240,237
396,4	23473,794
396,6	23691,82
396,9	23908,326
397,1	24115,485
397,4	24299,383
397,6	24460,375
397,9	24620,39
398,2	24787,717
398,4	24924,644
398,7	25051,496
398,9	25166,492
399,2	25281,057
399,4	25394,303
399,7	25521,845
399,9	25647,858
400,2	25802,218
400,4	25981,364
400,7	26218,179
400,9	26491,195
401,2	26794,128
401,4	27114,354
401,7	27443,199
401,9	27740,251
402,2	28014,19
402,5	28222,249
402,7	28408,369
403	28565,388
403,2	28718,4
403,5	28866,108
403,7	29032,472
404	29230,043
404,2	29462,197
404,5	29719,371
404,7	30021,237
405	30313,535
405,2	30612,12
405,5	30864,116
405,7	31092,097
406	31278,856
406,2	31419,206
406,5	31556,043
406,7	31661,03
407	31747,063
407,3	31805,15
407,5	31861,686
407,8	31917,347
408	31960,812
408,3	31985,692
408,5	32027,909
408,8	32077,533
409	32135,947
409,3	32154,817
409,5	32179,992
409,8	32179,676
410	32192,931
410,3	32188,104
410,5	32183,357
410,8	32177,603
411	32164,749
411,3	32170,881
411,5	32179,58
411,8	32180,598
412	32192,962
412,3	32206,375
412,6	32193,092
412,8	32208,948
413,1	32225,429
413,3	32267,143
413,6	32280,694
413,8	32322,04
414,1	32370,375
414,3	32425,77
414,6	32463,105
414,8	32491,32
415,1	32504,103
415,3	32526,883
415,6	32527,669
415,8	32537,579
416,1	32527,321
416,3	32519,464
416,6	32513,805
416,8	32502,095
417,1	32470,257
417,3	32458,432
417,6	32455,008
417,8	32469,101
418,1	32484,987
418,4	32506,117
418,6	32510,457
418,9	32522,85
419,1	32494,251
419,4	32470,741
419,6	32458,615
419,9	32414,142
420,1	32352,614
420,4	32306,653
420,6	32231,872
420,9	32200,12
421,1	32143,688
421,4	32100,319
421,6	32047,384
421,9	31970,673
422,1	31872,036
422,4	31779,507
422,6	31679,775
422,9	31549,811
423,1	31399,736
423,4	31265,762
423,6	31153,014
423,9	31046,893
424,1	30950,688
424,4	30881,192
424,6	30843,499
424,9	30801,715
425,1	30800,069
425,4	30783,053
425,6	30802,279
425,9	30804,019
426,2	30797,773
426,4	30799,096
426,7	30772,582
426,9	30753,97
427,2	30754,606
427,4	30739,025
427,7	30744,976
427,9	30774,807
428,2	30790,507
428,4	30831,979
428,7	30857,887
428,9	30904,74
429,2	30945,707
429,4	30974,449
429,7	30995,637
429,9	31031,397
430,2	31062,205
430,4	31077,444
430,7	31092,029
430,9	31111,559
431,2	31115,982
431,4	31106,288
431,7	31113,845
431,9	31129,695
432,2	31146,232
432,4	31171,996
432,7	31197,277
432,9	31222,945
433,2	31263,808
433,4	31298,371
433,7	31340,351
433,9	31386,176
434,2	31457,834
434,4	31523,727
434,7	31587,69
434,9	31645,346
435,2	31739,763
435,4	31819,496
435,7	31898,85
435,9	32000,566
436,2	32071,607
436,4	32150,977
436,7	32247,164
436,9	32357,106
437,2	32471,234
437,4	32607,829
437,7	32739,816
437,9	32878,659
438,2	33037,282
438,4	33219,491
438,7	33379,413
438,9	33535,281
439,2	33671,554
439,4	33810,438
439,7	33901,79
439,9	33987,539
440,2	34079,181
440,5	34162,392
440,7	34250,993
441	34326,878
441,2	34409,494
441,5	34486,368
441,7	34590,783
442	34720,398
442,2	34816,497
442,5	34919,701
442,7	35043,099
443	35155,137
443,2	35267,546
443,5	35369,86
443,7	35456,902
444	35510,421
444,2	35587,868
444,5	35662,383
444,7	35739,241
445	35810,68
445,2	35856,616
445,5	35900,863
445,7	35975,404
446	36042,439
446,2	36133,253
446,5	36231,519
446,7	36351,629
447	36458,087
447,2	36534,662
447,5	36614,664
447,7	36706,899
448	36790,471
448,2	36882,081
448,5	36974,967
448,7	37083,759
449	37169,354
449,2	37272,93
449,5	37345,007
449,7	37448,477
450	37548,092
450,2	37623,581
450,5	37683,682
450,7	37761,36
451	37844,527
451,2	37916,197
451,5	37997,619
451,7	38076,534
452	38153,327
452,2	38197,768
452,5	38276,888
452,7	38333,642
452,9	38427,13
453,2	38514,6
453,4	38609,989
453,7	38722,102
453,9	38851,542
454,2	38963,063
454,4	39068,354
454,7	39161,08
454,9	39272,871
455,2	39371,936
455,4	39459,638
455,7	39548,661
455,9	39636,524
456,2	39696,578
456,4	39790,077
456,7	39882,548
456,9	39964,936
457,2	40023,318
457,4	40087,087
457,7	40127,395
457,9	40191,493
458,2	40246,073
458,4	40296,803
458,7	40327,761
458,9	40358,864
459,2	40404,3
459,4	40423,84
459,7	40440,204
459,9	40491,759
460,2	40530,107
460,4	40606,231
460,7	40676,305
460,9	40744,336
461,2	40821,837
461,4	40902,361
461,7	40964,443
461,9	41035,27
462,2	41084,812
462,4	41148,305
462,7	41205,434
462,9	41254,034
463,2	41297,598
463,4	41323,023
463,7	41349,622
463,9	41377,217
464,2	41413,883
464,4	41451,554
464,7	41475,636
464,9	41501,963
465,2	41522,336
465,4	41564,962
465,7	41623,83
465,9	41663,847
466,2	41705,912
466,4	41763,913
466,6	41812,594
466,9	41866,331
467,1	41910,457
467,4	42002,653
467,6	42049,576
467,9	42130,197
468,1	42191,792
468,4	42252,584
468,6	42319,863
468,9	42359,696
469,1	42392,199
469,4	42441,532
469,6	42498,107
469,9	42558,022
470,1	42612,621
470,4	42687,348
470,6	42751,061
470,9	42813,671
471,1	42887,957
471,4	42973,972
471,6	43039,961
471,9	43136,119
472,1	43215,961
472,4	43316,789
472,6	43427,166
472,9	43547,022
473,1	43643,055
473,4	43741,931
473,6	43852,399
473,9	43986,051
474,1	44117,089
474,3	44257,991
474,6	44407,816
474,8	44555,295
475,1	44673,863
475,3	44820,021
475,6	44944,819
475,8	45096,24
476,1	45247,044
476,3	45391,15
476,6	45514,88
476,8	45655,294
477,1	45771,894
477,3	45903,708
477,6	46039,681
477,8	46162,376
478,1	46274,544
478,3	46385,442
478,6	46470,966
478,8	46542,011
479,1	46591,935
479,3	46659,878
479,6	46701,801
479,8	46776,286
480,1	46858,736
480,3	46932,925
480,5	47020,989
480,8	47110,664
481	47224,558
481,3	47336,292
481,5	47423,977
481,8	47536,635
482	47661,499
482,3	47788,263
482,5	47900,935
482,8	48040,652
483	48170,479
483,3	48289,135
483,5	48421,991
483,8	48541,495
484	48678,805
484,3	48801,099
484,5	48909,056
484,8	49012,829
485	49105,229
485,2	49197,561
485,5	49287,653
485,7	49381,122
486	49466,906
486,2	49547,404
486,5	49630,378
486,7	49729,476
487	49810,034
487,2	49902,664
487,5	49990,249
487,7	50073,263
488	50166,651
488,2	50240,854
488,5	50313,053
488,7	50380,19
489	50442,358
489,2	50502,909
489,5	50571,472
489,7	50618,073
489,9	50671,439
490,2	50721,764
490,4	50772,611
490,7	50820,852
490,9	50853,405
491,2	50877,889
491,4	50905,436
491,7	50944,519
491,9	50979,805
492,2	51023,515
492,4	51062,324
492,7	51097,465
492,9	51141,217
493,2	51202,912
493,4	51261,35
493,6	51339,558
493,9	51422,127
494,1	51514,52
494,4	51589,003
494,6	51664,825
494,9	51717,507
495,1	51764,275
495,4	51817,095
495,6	51855,444
495,9	51891,175
496,1	51904,526
496,4	51902,845
496,6	51918,158
496,9	51915,046
497,1	51897,316
497,3	51877,999
497,6	51854,251
497,8	51827,721
498,1	51801,4
498,3	51792,127
498,6	51774,25
498,8	51764,476
499,1	51750,155
499,3	51754,875
499,6	51751,334
499,8	51744,456
500,1	51743,571
500,3	51729,815
500,6	51712,376
500,8	51687,962
501	51668,426
501,3	51639,355
501,5	51624,486
501,8	51593,527
502	51565,44
502,3	51525,673
502,5	51487,648
502,8	51446,608
503	51396,801
503,3	51355,974
503,5	51326,465
503,8	51279,488
504	51246,285
504,2	51211,982
504,5	51175,827
504,7	51137,622
505	51097,426
505,2	51053,396
505,5	51005,839
505,7	50960,582
506	50923,667
506,2	50887,671
506,5	50839,842
506,7	50784,005
506,9	50732,64
507,2	50671,745
507,4	50615,602
507,7	50568,038
507,9	50520,661
508,2	50467,013
508,4	50430,73
508,7	50393,217
508,9	50350,87
509,2	50292,709
509,4	50222,876
509,7	50137,809
509,9	50045,48
510,1	49953,385
510,4	49847,844
510,6	49736,898
510,9	49632,84
511,1	49530,519
511,4	49439,095
511,6	49351,044
511,9	49278,554
512,1	49214,003
512,4	49155,706
512,6	49100,442
512,8	49039,638
513,1	48978,18
513,3	48906,117
513,6	48847,505
513,8	48786,356
514,1	48724,693
514,3	48662,992
514,6	48609,993
514,8	48561,394
515,1	48509,657
515,3	48461,393
515,5	48407,182
515,8	48357,105
516	48298,243
516,3	48267,092
516,5	48210,565
516,8	48168,11
517	48130,926
517,3	48087,73
517,5	48041,278
517,7	48007,994
518	47976,624
518,2	47935,457
518,5	47882,669
518,7	47838,879
519	47765,11
519,2	47681,435
519,5	47586,248
519,7	47497,387
520	47398,325
520,2	47309,277
520,4	47228,214
520,7	47142,247
520,9	47077,274
521,2	47016,241
521,4	46976,63
521,7	46943,907
521,9	46917,766
522,2	46894,628
522,4	46870,612
522,6	46838,577
522,9	46808,913
523,1	46781,359
523,4	46766,88
523,6	46745,453
523,9	46741,807
524,1	46753,83
524,4	46778,031
524,6	46818,675
524,8	46859,94
525,1	46874,778
525,3	46900,469
525,6	46933,406
525,8	46934
526,1	46958,518
526,3	46981,035
526,6	46989,13
526,8	46983,009
527	46977,021
527,3	46957,281
527,5	46940,942
527,8	46927,155
528	46906,539
528,3	46889,849
528,5	46879,564
528,8	46857,203
529	46830,641
529,2	46793,497
529,5	46756,869
529,7	46717,633
530	46670,337
530,2	46627,848
530,5	46592,085
530,7	46566,429
531	46549,004
531,2	46496,939
531,4	46458,328
531,7	46405,06
531,9	46346,206
532,2	46285,378
532,4	46226,348
532,7	46149,032
532,9	46071,296
533,2	45993,59
533,4	45912,584
533,6	45834,968
533,9	45773,459
534,1	45720,701
534,4	45678,285
534,6	45638,149
534,9	45612,653
535,1	45578,453
535,3	45536,302
535,6	45505,538
535,8	45457,446
536,1	45406,595
536,3	45346,66
536,6	45287,136
536,8	45207,032
537,1	45141,254
537,3	45068,534
537,5	44999,845
537,8	44934,333
538	44876,988
538,3	44793,766
538,5	44715,548
538,8	44630,15
539	44549,254
539,2	44474,416
539,5	44394,965
539,7	44327,37
540	44268,599
540,2	44207,784
540,5	44139,137
540,7	44090,994
540,9	44018,877
541,2	43958,199
541,4	43899,89
541,7	43847,018
541,9	43786,808
542,2	43730,036
542,4	43663,349
542,7	43597,457
542,9	43528,425
543,1	43455,897
543,4	43374,252
543,6	43294,934
543,9	43213,156
544,1	43144,499
544,4	43074,817
544,6	43009,798
544,8	42947,946
545,1	42889,836
545,3	42824,948
545,6	42763,748
545,8	42675,139
546,1	42608,402
546,3	42535,103
546,5	42467,307
546,8	42396,152
547	42342,058
547,3	42273,11
547,5	42234,153
547,8	42185,18
548	42143,909
548,2	42108,526
548,5	42073,521
548,7	42030,857
549	41982,605
549,2	41937,458
549,5	41888,044
549,7	41827,078
549,9	41769,81
550,2	41714,792
550,4	41652,118
550,7	41583,948
550,9	41513,895
551,2	41430,494
551,4	41349,878
551,6	41270,214
551,9	41179,331
552,1	41087,198
552,4	40998,168
552,6	40896,269
552,9	40796,526
553,1	40704,393
553,3	40624,131
553,6	40539,863
553,8	40459,95
554,1	40376,797
554,3	40292,089
554,5	40203,684
554,8	40128,527
555	40045,353
555,3	39970,536
555,5	39898,02
555,8	39829,956
556	39754,282
556,2	39682,973
556,5	39602,213
556,7	39527,189
557	39447,644
557,2	39372,695
557,5	39288,591
557,7	39212,329
557,9	39131,03
558,2	39048,47
558,4	38959,356
558,7	38881,298
558,9	38792,74
559,2	38711,614
559,4	38627,174
559,6	38549,835
559,9	38469,732
560,1	38396,868
560,4	38311,545
560,6	38247,87
560,8	38177,103
561,1	38115,241
561,3	38044,187
561,6	37970,927
561,8	37888,584
562,1	37825,979
562,3	37743,013
562,5	37668,946
562,8	37591,507
563	37514,583
563,3	37443,728
563,5	37371,51
563,7	37301,35
564	37229,122
564,2	37164,335
564,5	37106,811
564,7	37049,8
565	36999,805
565,2	36946,931
565,4	36902,121
565,7	36854,839
565,9	36824,708
566,2	36788,047
566,4	36758,053
566,6	36732,126
566,9	36711,066
567,1	36680,009
567,4	36657,687
567,6	36620,218
567,9	36580,289
568,1	36534,913
568,3	36492,086
568,6	36429,936
568,8	36380,086
569,1	36323,308
569,3	36271,758
569,5	36211,026
569,8	36156,264
570	36098,432
570,3	36033,747
570,5	35970,21
570,7	35896,104
571	35831,68
571,2	35759,324
571,5	35682,958
571,7	35608,436
572	35536,805
572,2	35467,965
572,4	35392,519
572,7	35322,091
572,9	35258,898
573,2	35206,359
573,4	35144,552
573,6	35088,746
573,9	35023,014
574,1	34967,306
574,4	34903,991
574,6	34841,44
574,8	34776,349
575,1	34717,459
575,3	34653,941
575,6	34591,966
575,8	34523,141
576	34457,202
576,3	34402,999
576,5	34348,238
576,8	34282,408
577	34227,476
577,3	34171,777
577,5	34107,077
577,7	34042,926
578	33965,033
578,2	33896,836
578,5	33831,324
578,7	33759,244
578,9	33683,217
579,2	33606,167
579,4	33529,201
579,7	33446,089
579,9	33355,413
580,1	33272,337
580,4	33184,336
580,6	33084,43
580,9	32985,55
581,1	32879,252
581,3	32755,228
581,6	32626,519
581,8	32493,23
582,1	32341,94
582,3	32192,346
582,5	32045,654
582,8	31893,262
583	31749,827
583,3	31616,237
583,5	31472,952
583,7	31347,436
584	31221,523
584,2	31101,544
584,5	30990,113
584,7	30871,153
584,9	30759,467
585,2	30648,301
585,4	30551,09
585,7	30445,541
585,9	30357,599
586,1	30274,443
586,4	30187,032
586,6	30101,121
586,9	30013,906
587,1	29923,56
587,3	29838,162
587,6	29734,666
587,8	29640,018
588,1	29552,707
588,3	29466,073
588,5	29382,811
588,8	29293,637
589	29210,732
589,3	29130,408
589,5	29054,697
589,7	28975,101
590	28898,986
590,2	28823,328
590,5	28756,911
590,7	28688,829
590,9	28613,958
591,2	28545,321
591,4	28487,166
591,7	28420,349
591,9	28362,384
592,1	28317,251
592,4	28266,622
592,6	28229,226
592,9	28199,482
593,1	28162,839
593,3	28132,487
593,6	28101,907
593,8	28077,001
594,1	28049,755
594,3	28023,148
594,5	28007,028
594,8	27982,144
595	27966,954
595,3	27954,438
595,5	27946,058
595,7	27950,999
596	27965,274
596,2	27993,245
596,4	28035,829
596,7	28092,195
596,9	28148,122
597,2	28214,236
597,4	28284,541
597,6	28340,074
597,9	28399,666
598,1	28454,595
598,4	28503,431
598,6	28547,812
598,8	28585,747
599,1	28615,232
599,3	28655,012
599,6	28689,134
599,8	28719,656
600	28742,584
600,3	28761,17
600,5	28776,016
600,7	28783,904
601	28787,629
601,2	28786,233
601,5	28790,167
601,7	28789,47
601,9	28786,032
602,2	28784,091
602,4	28783,457
602,7	28769,916
602,9	28752,958
603,1	28729,681
603,4	28703,021
603,6	28670,306
603,9	28632,325
604,1	28594,808
604,3	28553,963
604,6	28511,034
604,8	28465,141
605	28409,105
605,3	28354,505
605,5	28298,849
605,8	28237,419
606	28168,494
606,2	28103,614
606,5	28020,532
606,7	27931,784
607	27847,365
607,2	27759,528
607,4	27658,84
607,7	27570,206
607,9	27477,15
608,1	27386,173
608,4	27288,11
608,6	27189,067
608,9	27087,144
609,1	26977,803
609,3	26873,565
609,6	26757,768
609,8	26649,471
610,1	26534,427
610,3	26418,327
610,5	26298,284
610,8	26180,731
611	26060,465
611,2	25942,529
611,5	25828,005
611,7	25707,664
612	25587,923
612,2	25472,067
612,4	25355,388
612,7	25243,062
612,9	25129,723
613,1	25022,765
613,4	24912,086
613,6	24809,085
613,9	24700,085
614,1	24590,421
614,3	24482,445
614,6	24377,038
614,8	24267,415
615	24160,234
615,3	24057,331
615,5	23963,686
615,8	23862,759
616	23760,951
616,2	23664,148
616,5	23565,027
616,7	23471,574
616,9	23370,718
617,2	23274,788
617,4	23179,385
617,7	23085,214
617,9	22993,95
618,1	22912,289
618,4	22824,58
618,6	22729,317
618,8	22642,73
619,1	22549,617
619,3	22461,815
619,6	22378,352
619,8	22292,648
620	22209,797
620,3	22129,736
620,5	22039,107
620,7	21948,389
621	21864,641
621,2	21784,221
621,5	21696,256
621,7	21614,359
621,9	21529,65
622,2	21443,269
622,4	21357,909
622,6	21272,965
622,9	21184,518
623,1	21101,07
623,4	21021,952
623,6	20948,44
623,8	20870,129
624,1	20801,703
624,3	20726,613
624,5	20656,559
624,8	20579,427
625	20511,66
625,3	20437,978
625,5	20363,996
625,7	20293,563
626	20226,632
626,2	20151,867
626,4	20082,158
626,7	20008,751
626,9	19938,528
627,1	19864,997
627,4	19794,732
627,6	19717,753
627,9	19650,511
628,1	19575,703
628,3	19505,798
628,6	19439,135
628,8	19374,988
629	19312,801
629,3	19254,749
629,5	19195,002
629,8	19129,49
630	19061,23
630,2	19004,112
630,5	18951,656
630,7	18899,759
630,9	18849,237
631,2	18798,872
631,4	18744,954
631,6	18696,692
631,9	18655,655
632,1	18619,867
632,4	18570,658
632,6	18525,261
632,8	18479,373
633,1	18432,592
633,3	18385,938
633,5	18343,809
633,8	18298,283
634	18247,186
634,2	18202,792
634,5	18154,946
634,7	18103,407
635	18068,394
635,2	18025,152
635,4	17991,873
635,7	17959,32
635,9	17926,877
636,1	17891,998
636,4	17859,255
636,6	17832,101
636,8	17806,516
637,1	17771,485
637,3	17746,465
637,5	17718,387
637,8	17685,512
638	17652,948
638,3	17620,144
638,5	17581,224
638,7	17542,905
639	17502,902
639,2	17461,962
639,4	17425,727
639,7	17375,413
639,9	17326,267
640,1	17273,173
640,4	17213,715
640,6	17161,809
640,9	17109,378
641,1	17052,821
641,3	16995,875
641,6	16937,899
641,8	16874,724
642	16813,673
642,3	16746,706
642,5	16689,345
642,7	16622,517
643	16557,691
643,2	16496,563
643,4	16434,784
643,7	16374,642
643,9	16319,393
644,1	16260,905
644,4	16207,406
644,6	16151,604
644,9	16084,962
645,1	16021,469
645,3	15957,121
645,6	15901,728
645,8	15845,634
646	15786,312
646,3	15721,101
646,5	15655,271
646,7	15599,376
647	15538,92
647,2	15479,922
647,4	15427,666
647,7	15373,738
647,9	15310,465
648,1	15249,976
648,4	15191,184
648,6	15129,722
648,9	15065,079
649,1	14998,709
649,3	14920,458
649,6	14845,344
649,8	14759,455
650	14675,968
650,3	14599,738
650,5	14526,995
650,7	14452,958
651	14378,723
651,2	14304,129
651,4	14240,922
651,7	14173,783
651,9	14113,49
652,1	14061,138
652,4	14012,578
652,6	13965,477
652,8	13916,787
653,1	13871,074
653,3	13844,139
653,5	13811,978
653,8	13765,61
654	13729,171
654,3	13700,751
654,5	13666,772
654,7	13642,182
655	13612,722
655,2	13582,159
655,4	13560,859
655,7	13531,5
655,9	13505,073
656,1	13484,52
656,4	13465,095
656,6	13442,557
656,8	13417,091
657,1	13393,698
657,3	13370,312
657,5	13342,596
657,8	13316,019
658	13283,873
658,2	13253,631
658,5	13223,257
658,7	13193,217
658,9	13159,539
659,2	13136,235
659,4	13107,093
659,6	13084,596
659,9	13044,817
660,1	13009,367
660,3	12980,647
660,6	12949,988
660,8	12922,141
661	12893,741
661,3	12856,726
661,5	12830,869
661,8	12800,78
662	12768,009
662,2	12746,629
662,5	12723,396
662,7	12696,246
662,9	12673,366
663,2	12652,414
663,4	12636,37
663,6	12626,98
663,9	12622,609
664,1	12618,084
664,3	12611,207
664,6	12603,118
664,8	12586,97
665	12577,59
665,3	12555,754
665,5	12536,38
665,7	12520,666
666	12498,797
666,2	12471,709
666,4	12437,202
666,7	12400,018
666,9	12363,273
667,1	12332,493
667,4	12302,552
667,6	12247,907
667,8	12207,448
668,1	12170,166
668,3	12140,716
668,5	12095,64
668,8	12062,241
669	12025,508
669,2	11984,914
669,5	11948,613
669,7	11905,695
669,9	11876,888
670,2	11840,169
670,4	11798,769
670,6	11753,705
670,9	11718,21
671,1	11679,513
671,3	11642,02
671,6	11601,832
671,8	11561,041
672	11526,625
672,3	11492,055
672,5	11452,314
672,7	11418,925
673	11379,802
673,2	11347,818
673,4	11305,812
673,7	11267,166
673,9	11222,808
674,1	11191,972
674,4	11157,135
674,6	11116,023
674,8	11078,242
675,1	11035,67
675,3	10993,421
675,5	10961,041
675,8	10920,109
676	10886,635
676,2	10844,312
676,5	10804,563
676,7	10764,35
676,9	10734,796
677,2	10690,881
677,4	10655,44
677,6	10616,7
677,9	10581,437
678,1	10538,993
678,3	10501,997
678,5	10463,281
678,8	10426,423
679	10390,805
679,2	10346,533
679,5	10304,808
679,7	10254,561
679,9	10194,874
680,2	10129,296
680,4	10068,05
680,6	9997,578
680,9	9927,061
681,1	9851,236
681,3	9775,937
681,6	9700,058
681,8	9631,275
682	9560,982
682,3	9491,311
682,5	9418,149
682,7	9353,328
683	9282,041
683,2	9211,784
683,4	9150,217
683,7	9082,641
683,9	9025,01
684,1	8955,175
684,4	8896,894
684,6	8841,151
684,8	8785,924
685,1	8732,612
685,3	8686,218
685,5	8632,629
685,7	8586,691
686	8533,312
686,2	8473,524
686,4	8416,068
686,7	8358,469
686,9	8298,891
687,1	8240,878
687,4	8180,47
687,6	8124,965
687,8	8066,381
688,1	8011,772
688,3	7951,241
688,5	7901,379
688,8	7854,543
689	7796,686
689,2	7748,469
689,5	7700,589
689,7	7647,527
689,9	7601,337
690,2	7549,868
690,4	7510,883
690,6	7468,419
690,8	7428,471
691,1	7383,267
691,3	7346,071
691,5	7305,32
691,8	7263,808
692	7217,58
692,2	7178,762
692,5	7140,179
692,7	7096,938
692,9	7051,88
693,2	7005,596
693,4	6965,88
693,6	6935,829
693,9	6910,155
694,1	6884,89
694,3	6866,875
694,5	6847,158
694,8	6836,917
695	6826,578
695,2	6822,326
695,5	6817,075
695,7	6813,873
695,9	6802,672
696,2	6793,986
696,4	6784,096
696,6	6777,796
696,9	6771,112
697,1	6766,432
697,3	6760,032
697,6	6753,281
697,8	6742,1
698	6733,028
698,2	6724,566
698,5	6708,64
698,7	6697,898
698,9	6687,847
699,2	6669,5
699,4	6644,44
699,6	6628,087
699,9	6611,217
700,1	6600,111
700,3	6585,404
700,6	6574,902
700,8	6561,162
701	6552,93
701,2	6545,315
701,5	6534,772
701,7	6526,709
701,9	6522,428
702,2	6514,08
702,4	6509,655
702,6	6496,81
702,9	6479,213
703,1	6467,585
703,3	6453,417
703,6	6441,044
703,8	6431,605
704	6413,704
704,2	6397,041
704,5	6376,748
704,7	6355,832
704,9	6334,01
705,2	6311
705,4	6292,849
705,6	6272,181
705,9	6254,626
706,1	6236,379
706,3	6219,481
706,5	6201,449
706,8	6187,687
707	6174,266
707,2	6158,936
707,5	6145,19
707,7	6124,216
707,9	6104,626
708,2	6089,035
708,4	6078,109
708,6	6062,477
708,8	6048,98
709,1	6035,119
709,3	6018,997
709,5	5997,117
709,8	5970,248
710	5949,701
710,2	5919,025
710,5	5888,563
710,7	5855,503
710,9	5813,838
711,1	5766,795
711,4	5720,259
711,6	5670,005
711,8	5626,009
712,1	5570,547
712,3	5518,483
712,5	5468,109
712,8	5411,276
713	5356,995
713,2	5303,906
713,4	5257,898
713,7	5206,361
713,9	5154,337
714,1	5105,379
714,4	5060,137
714,6	5013,968
714,8	4973,435
715,1	4933,104
715,3	4896,881
715,5	4862,949
715,7	4822,845
716	4789,53
716,2	4749,226
716,4	4709,797
716,7	4671,754
716,9	4630,287
717,1	4588,949
717,3	4544,511
717,6	4501,884
717,8	4457,298
718	4414,414
718,3	4369,321
718,5	4323,963
718,7	4276,503
718,9	4233,374
719,2	4194,19
719,4	4151,508
719,6	4113,102
719,9	4073,006
720,1	4032,004
720,3	3990,151
720,6	3943,238
720,8	3899,376
721	3861,842
721,2	3827,807
721,5	3788,994
721,7	3750,827
721,9	3717,843
722,2	3675,727
722,4	3636,199
722,6	3596,659
722,8	3555,335
723,1	3517,723
723,3	3479,437
723,5	3443,745
723,8	3415,314
724	3388,427
724,2	3365,759
724,4	3348,965
724,7	3329,462
724,9	3316,111
725,1	3312,625
725,4	3307,223
725,6	3302,492
725,8	3301,112
726	3305,732
726,3	3307,863
726,5	3318,006
726,7	3326,44
727	3335,223
727,2	3345,73
727,4	3348,383
727,6	3361,263
727,9	3368,349
728,1	3372,925
728,3	3376,687
728,6	3382,464
728,8	3383,045
729	3379,546
729,2	3372,441
729,5	3362,473
729,7	3357,862
729,9	3345,383
730,2	3345,301
730,4	3340,55
730,6	3343,239
730,8	3344,911
731,1	3356,696
731,3	3363,785
731,5	3363,819
731,7	3372,952
732	3378,228
732,2	3384,61
732,4	3392,421
732,7	3400,551
732,9	3408,395
733,1	3409,41
733,3	3414,524
733,6	3413,342
733,8	3417,375
734	3420,645
734,3	3427,381
734,5	3441,093
734,7	3448,166
734,9	3449,765
735,2	3452,506
735,4	3457,32
735,6	3458,304
735,9	3459,209
736,1	3467,223
736,3	3471,414
736,5	3487,45
736,8	3499,941
737	3503,893
737,2	3510,276
737,4	3523,195
737,7	3532,163
737,9	3536,371
738,1	3542,6
738,4	3548,29
738,6	3555,088
738,8	3565,589
739	3565,741
739,3	3571,64
739,5	3577,538
739,7	3572,707
739,9	3568,635
740,2	3568,615
740,4	3563,438
740,6	3563,849
740,9	3560,832
741,1	3553,612
741,3	3553,409
741,5	3550,097
741,8	3548,298
742	3541,121
742,2	3536,895
742,4	3530,203
742,7	3526,345
742,9	3525,961
743,1	3525,542
743,4	3517,808
743,6	3518,416
743,8	3519,198
744	3514,522
744,3	3510,001
744,5	3498,061
744,7	3488,683
744,9	3478,537
745,2	3471,722
745,4	3464,498
745,6	3451,44
745,8	3444,12
746,1	3436,946
746,3	3429,877
746,5	3423,332
746,8	3418,217
747	3411,803
747,2	3405,471
747,4	3399,989
747,7	3393,914
747,9	3388,146
748,1	3381,971
748,3	3373,823
748,6	3369,069
748,8	3363,571
749	3351,593
749,2	3343,708
749,5	3338,806
749,7	3328,684
749,9	3325,982
750,2	3319,956
750,4	3302,907
750,6	3293,403
750,8	3288,528
751,1	3280,621
751,3	3269,905
751,5	3258,645
751,7	3249,218
752	3240,304
752,2	3231,108
752,4	3217,405
752,6	3191,074
752,9	3168,198
753,1	3136,137
753,3	3102,616
753,5	3071,283
753,8	3035,793
754	2993,701
754,2	2948,438
754,4	2897,582
754,7	2857,62
754,9	2821,931
755,1	2777,884
755,4	2731,323
755,6	2682,759
755,8	2648,999
756	2607,739
756,3	2568,646
756,5	2526,033
756,7	2480,227
756,9	2433,144
757,2	2397,904
757,4	2351,771
757,6	2309,776
757,8	2269,923
758,1	2234,358
758,3	2199,486
758,5	2171,611
758,7	2133,396
759	2098,215
759,2	2068,126
759,4	2037,286
759,6	2004,994
759,9	1983,414
760,1	1954,189
760,3	1925,61
760,5	1897,373
760,8	1871,95
761	1845,692
761,2	1824,501
761,4	1802,391
761,7	1781,34
761,9	1756,062
762,1	1728,714
762,3	1707,694
762,6	1684,453
762,8	1671,099
763	1652,016
763,2	1632,056
763,5	1615,594
763,7	1593,497
763,9	1573,958
764,1	1558,019
764,4	1540,784
764,6	1523,342
764,8	1509,3
765	1493,627
765,3	1474,759
765,5	1459,18
765,7	1443,042
765,9	1428,767
766,2	1415,198
766,4	1414,511
766,6	1412,61
766,8	1417,23
767,1	1425,774
767,3	1435,395
767,5	1450,491
767,7	1465,239
768	1487,26
768,2	1508,207
768,4	1521,385
768,6	1533,062
768,9	1546,742
769,1	1565,69
769,3	1584,68
769,5	1593,583
769,8	1607,654
770	1623,303
770,2	1641,021
770,4	1651,683
770,7	1667,169
770,9	1681,464
771,1	1696,116
771,3	1707,406
771,6	1720,247
771,8	1731,878
772	1741,901
772,2	1746,091
772,5	1758,029
772,7	1769,589
772,9	1778,545
773,1	1784,854
773,4	1793,012
773,6	1791,734
773,8	1794,472
774	1796,271
774,3	1793,088
774,5	1795,834
774,7	1795,618
774,9	1791,078
775,2	1784,569
775,4	1782,274
775,6	1776,73
775,8	1774,992
776	1768,523
776,3	1764,49
776,5	1751,028
776,7	1746,07
776,9	1739,387
777,2	1729,2
777,4	1719,774
777,6	1714,394
777,8	1705,954
778,1	1693,182
778,3	1683,325
778,5	1675,368
778,7	1664,833
779	1659,75
779,2	1649,902
779,4	1641,654
779,6	1635,581
779,9	1627,967
780,1	1615,728
780,3	1605,65
780,5	1592,022
780,7	1580,05
781	1568,331
781,2	1555,477
781,4	1543,251
781,6	1530,759
781,9	1518,876
782,1	1508,28
782,3	1498,339
782,5	1495,686
782,8	1485,013
783	1475,492
783,2	1469,416
783,4	1462,254
783,7	1452,475
783,9	1443,576
784,1	1437,698
784,3	1429,737
784,5	1422,017
784,8	1415,592
785	1406,966
785,2	1394,503
785,4	1378,993
785,7	1363,875
785,9	1354,046
786,1	1340,641
786,3	1324,675
786,6	1315,951
786,8	1303,408
787	1293,614
787,2	1283,547
787,4	1272,956
787,7	1265,627
787,9	1262,099
788,1	1255,307
788,3	1245,084
788,6	1236,391
788,8	1228,452
789	1215,553
789,2	1207,259
789,5	1194,621
789,7	1192,484
789,9	1185,517
790,1	1182,912
790,3	1173,432
790,6	1167,488
790,8	1161,113
791	1155,574
791,2	1147,841
791,5	1138,556
791,7	1136,562
791,9	1127,73
792,1	1117,589
792,3	1111,587
792,6	1104,955
792,8	1096,903
793	1086,68
793,2	1078,604
793,5	1073,45
793,7	1071,117
793,9	1069,11
794,1	1069,704
794,3	1064,069
794,6	1056,703
794,8	1055,855
795	1077,291
795,2	1073,916
795,5	1076,374
795,7	1071,601
795,9	1067,513
796,1	1059,011
796,3	1055,008
796,6	1048,613
796,8	1038,734
797	1033,771
797,2	1026,633
797,5	1020,595
797,7	1017,152
797,9	1010,06
798,1	1005,891
798,3	994,855
798,6	991,879
798,8	990,727
799	992,001
799,2	989,841
799,5	985,181
799,7	983,9
799,9	983,712
800,1	977,245
800,3	980,471
800,6	976,494
800,8	973,904
801	972,211
801,2	968,361
801,5	962,208
801,7	951,443
801,9	946,084
802,1	941,127
802,3	937,274
802,6	933,781
802,8	931,611
803	930,376
803,2	920,33
803,4	910,064
803,7	905,299
803,9	903,057
804,1	898,892
804,3	890,783
804,6	884,09
804,8	876,394
805	875,029
805,2	873,489
805,4	873,652
805,7	866,075
805,9	866,191
806,1	859,635
806,3	855,057
806,5	849,735
806,8	837,088
807	832,128
807,2	823,515
807,4	811,165
807,6	799,917
807,9	794,618
808,1	791,637
808,3	781,339
808,5	752,676
808,8	746,823
809	733,365
809,2	725,494
809,4	716,637
809,6	710,712
809,9	705,162
810,1	696,619
810,3	691,99
810,5	683,489
810,7	676,003
811	668,916
811,2	663,424
811,4	654,938
811,6	639,961
811,8	639,416
812,1	633,318
812,3	626,804
812,5	614,395
812,7	610,135
812,9	607,263
813,2	595,748
813,4	587,825
813,6	582,758
813,8	574,362
814	566,742
814,3	557,748
814,5	550,383
814,7	542,515
814,9	534,395
815,2	528,741
815,4	522,221
815,6	514,658
815,8	513,231
816	509,44
816,3	505,017
816,5	504,323
816,7	497,21
816,9	492,165
817,1	486,337
817,4	477,262
817,6	475,724
817,8	477,493
818	474,392
818,2	471,471
818,5	464,823
818,7	454,105
818,9	450,812
819,1	448,313
819,3	438,336
819,6	436,294
819,8	432,737
820	430,716
820,2	428,148
820,4	426,121
820,7	421,146
820,9	419,551
821,1	416,502
821,3	415,799
821,5	410,909
821,8	408,58
822	403,848
822,2	400,741
822,4	401,338
822,6	399,367
822,9	398,579
823,1	395,82
823,3	389,777
823,5	387,413
823,7	386,739
823,9	387,428
824,2	389,535
824,4	391,615
824,6	390,17
824,8	394,12
825	399,663
825,3	396,611
825,5	395,829
825,7	391,803
825,9	394,889
826,1	395,666
826,4	394,437
826,6	396,787
826,8	394,808
827	390,904
827,2	389,442
827,5	388,916
827,7	388,153
827,9	386,037
828,1	385,383
828,3	383,29
828,6	383,687
828,8	385,077
829	388,96
829,2	386,628
829,4	384,212
829,6	381,405
829,9	376,262
830,1	378,465
830,3	383,595
830,5	386,118
830,7	388,06
831	385,577
831,2	384,408
831,4	379,545
831,6	377,682
831,8	375,097
832,1	374,121
832,3	368,573
832,5	369,421
832,7	372,541
832,9	368,792
833,1	373,089
833,4	371,653
833,6	369,354
833,8	364,516
834	365,63
834,2	365,012
834,5	364,385
834,7	359,261
834,9	364,93
835,1	362,761
835,3	367,795
835,5	367,614
835,8	364,935
836	368,471
836,2	371,173
836,4	370,637
836,6	369,96
836,9	373,192
837,1	378,723
837,3	375,163
837,5	376,353
837,7	371,642
837,9	372,03
838,2	368,514
838,4	368,439
838,6	367,093
838,8	363,167
839	366,107
839,3	366,532
839,5	367,212
839,7	362,534
839,9	360,889
840,1	366,458
840,3	366,722
840,6	365,627
840,8	365,964
841	364,691
841,2	362,94
841,4	358,677
841,7	362,233
841,9	358,955
842,1	357,731
842,3	356,637
842,5	358,467
842,7	357,599
843	355,586
843,2	356,188
843,4	353,272
843,6	350,715
843,8	347,59
844	346,218
844,3	343,824
844,5	341,362
844,7	344,483
844,9	341,741
845,1	341,765
845,4	339,53
845,6	336,184
845,8	333,812
846	331,378
846,2	333,872
846,4	325,805
846,7	322,288
846,9	320,957
847,1	323,225
847,3	320,397
847,5	318,14
847,7	314,492
848	313,741
848,2	306,488
848,4	304,653
848,6	298,548
848,8	298,854
849	293,633
849,3	289,857
849,5	288,469
849,7	289,256
849,9	293,12
850,1	289,997
850,3	281,548
850,6	280,386
850,8	270,793
851	273,999
851,2	269,607
851,4	268,733
851,6	266,277
851,9	266,807
852,1	267,043
852,3	264,663
852,5	260,726
852,7	250,576
852,9	251,25
853,2	254,583
853,4	248,969
853,6	247,629
853,8	252,427
854	247,733
854,2	247,074
854,5	250,886
854,7	255,12
854,9	253,042
855,1	251,803
855,3	249,766
855,5	246,624
855,8	238,961
856	237,335
856,2	239,165
856,4	235,136
856,6	234,916
856,8	231,476
857,1	228,043
857,3	225,234
857,5	220,261
857,7	218,607
857,9	220,443
858,1	222,121
858,4	222,988
858,6	226,711
858,8	227,662
859	227,773
859,2	224,526
859,4	219,797
859,7	222,381
859,9	226,244
860,1	229,55
860,3	225,614
860,5	222,361
860,7	226,768
860,9	232,343
861,2	232,534
861,4	231,234
861,6	232,235
861,8	232,815
862	231,334
862,2	233,698
862,5	234,139
862,7	231,118
862,9	225,508
863,1	219,574
863,3	222,893
863,5	219,746
863,8	218,592
864	220,301
864,2	214,286
864,4	213,09
864,6	213,636
864,8	213,123
865	211,709
865,3	210,716
865,5	204,388
865,7	203,597
865,9	209,564
866,1	209,513
866,3	204,117
866,6	202,1
866,8	201,912
867	192,874
867,2	192,173
867,4	190,245
867,6	185,171
867,8	179,179
868,1	174,291
868,3	173,266
868,5	178,579
868,7	174,758
868,9	172,804
869,1	170,636
869,3	166,305
869,6	167,364
869,8	165,573
870	166,847
870,2	169,401
870,4	169,095
870,6	170,513
870,9	167,616
871,1	162,964
871,3	157,988
871,5	152,953
871,7	148,084
871,9	146,952
872,1	141,241
872,4	138,476
872,6	140,384
872,8	145,555
873	145,124
873,2	139,624
873,4	139,203
873,6	142,467
873,9	138,407
874,1	132,449
874,3	126,548
874,5	130,282
874,7	132,048
874,9	125,408
875,1	122,196
875,4	122,485
875,6	119,138
875,8	115,21
876	119,462
876,2	118,125
876,4	116,836
876,6	117,658
876,9	120,467
877,1	119,225
877,3	121,301
877,5	122,821
877,7	120,946
877,9	120,775
878,1	121,081
878,4	118,922
878,6	117,242
878,8	116,546
879	116,641
879,2	117,203
879,4	117,823
879,6	118,222
879,9	115,816
880,1	115,295
880,3	115,725
880,5	120,103
880,7	117,59
880,9	119,138
881,1	115,813
881,3	116,528
881,6	112,969
881,8	115,989
882	114,248
882,2	115,71
882,4	117,223
882,6	117,358
882,8	118,794
883,1	116,862
883,3	111,642
883,5	111,404
883,7	113,021
883,9	115,22
884,1	113,384
884,3	117,583
884,6	122,175
884,8	120,979
885	122,024
885,2	122,955
885,4	124,319
885,6	121,6
885,8	119,661
886	116,261
886,3	116,102
886,5	115,12
886,7	117,998
886,9	116
887,1	117,41
887,3	122,659
887,5	120,477
887,8	114,649
888	118,604
888,2	116,887
888,4	117,983
888,6	118,333
888,8	117,846
889	113,245
889,2	110,041
889,5	106,467
889,7	105,278
889,9	104,803
890,1	108,505
890,3	105,033
890,5	101,518
890,7	101,343
890,9	99,314
891,2	98,276
891,4	97,462
891,6	102,385
891,8	104,147
892	100,502
892,2	98,071
892,4	95,184
892,6	93,156
892,9	96,804
893,1	93,509
893,3	94,53
893,5	90,479
893,7	92,862
893,9	92,886
894,1	94,947
894,3	95,888
894,6	93,105
894,8	94,027
895	94,66
895,2	91,266
895,4	89,407
895,6	82,718
895,8	81,619
896	84,891
896,3	88,074
896,5	86,003
896,7	83,101
896,9	86,732
897,1	90,208
897,3	89,131
897,5	86,374
897,7	83,323
898	82,828
898,2	80,349
898,4	80,483
898,6	80,308
898,8	71,747
899	70,223
899,2	70,896
899,4	68,494
899,6	58,209
899,9	55,956
900,1	53,633
900,3	51,132
900,5	47,201
900,7	47,943
900,9	47,408
901,1	49,512
901,3	46,891
901,6	47,163
901,8	49,27
902	49,211
902,2	55,111
902,4	54,423
902,6	55,931
902,8	53,52
903	51,542
903,2	51,148
903,5	51,06
903,7	55,667
903,9	54,68
904,1	51,95
904,3	47,88
904,5	44,459
904,7	45,549
904,9	42,63
905,1	37,841
905,4	39,917
905,6	39,7
905,8	33,609
906	33,679
906,2	32,185
906,4	30,821
906,6	24,583
906,8	21,745
907	23,862
907,3	20,689
907,5	20,909
907,7	14,475
907,9	21,154
908,1	30,557
908,3	28,02
908,5	30,599
908,7	30,288
908,9	27,252
909,2	20,979
909,4	25,521
909,6	25,192
909,8	21,251
910	19,379
910,2	17,031
910,4	18,931
910,6	23,58
910,8	23,88
911,1	25,928
911,3	26,736
911,5	23,487
911,7	24,526
911,9	29,815
912,1	31,539
912,3	34,678
912,5	37,413
912,7	40,167
912,9	39,886
913,2	37,04
913,4	38,502
913,6	42,442
913,8	45,153
914	41,919
914,2	44,662
914,4	40,253
914,6	42,501
914,8	36,076
915,1	33,245
915,3	29,645
915,5	28,974
915,7	28,447
915,9	26,087
916,1	30,654
916,3	33,545
916,5	23,672
916,7	23,11
916,9	24,102
917,2	27,311
917,4	31,322
917,6	28,489
917,8	28,792
918	32,171
918,2	27,199
918,4	24,217
918,6	28,207
918,8	27,818
919	22,112
919,2	20,421
919,5	22,138
919,7	25,853
919,9	21,765
920,1	22,84
920,3	18,486
920,5	20,807
920,7	15,456
920,9	7,06
921,1	8,022
921,3	6,688
921,6	3,838
921,8	2,534
922	5,847
922,2	3,083
922,4	3,783
922,6	1,086
922,8	1,572
923	1,874
923,2	-1,918
923,4	-1,726
923,6	-7,021
923,9	-7,23
924,1	-6,321
924,3	-6,428
924,5	-6,028
924,7	-9,35
924,9	-12,548
925,1	-15,767
925,3	-15,873
925,5	-18,613
925,7	-14,699
925,9	-10,641
926,2	-8,208
926,4	-10,216
926,6	-15,947
926,8	-16,101
927	-21,974
927,2	-21,426
927,4	-20,588
927,6	-10,265
927,8	-10,146
928	-8,553
928,2	-10,215
928,5	-8,152
928,7	-5,214
928,9	-11,011
929,1	-18,596
929,3	-18,108
929,5	-20,017
929,7	-24,342
929,9	-27,579
930,1	-32,102
930,3	-33,164
930,5	-31,889
930,8	-33,202
931	-28,854
931,2	-25,389
931,4	-26,662
931,6	-25,049
931,8	-21,483
932	-20,511
932,2	-18,121
932,4	-22,665
932,6	-22,715
932,8	-21,918
933	-21,277
933,3	-20,938
933,5	-20,55
933,7	-19,97
933,9	-20,1
934,1	-19,596
934,3	-19,111
934,5	-22,137
934,7	-23,036
934,9	-30,008
935,1	-32,138
935,3	-26,518
935,5	-26,872
935,7	-29,908
936	-31,816
936,2	-30,889
936,4	-27,377
936,6	-28,705
936,8	-34,318
937	-31,006
937,2	-30,957
937,4	-32,638
937,6	-31,973
937,8	-29,867
938	-30,132
938,2	-30,332
938,4	-32,237
938,7	-34,579
938,9	-36,743
939,1	-39,917
939,3	-37,197
939,5	-31,266
939,7	-29,848
939,9	-29,07
940,1	-32,129
940,3	-37,162
940,5	-36,2
940,7	-36,672
940,9	-38,891
941,1	-41,3
941,4	-47,808
941,6	-41,574
941,8	-36,205
942	-29,254
942,2	-27,155
942,4	-21,338
942,6	-15,004
942,8	-15,721
943	-15,4
943,2	-19,698
943,4	-19,658
943,6	-21,232
943,8	-20,781
944	-23,056
944,3	-24,414
944,5	-26,034
944,7	-28,379
944,9	-28,983
945,1	-24,657
945,3	-24,572
945,5	-25,617
945,7	-23,024
945,9	-22,349
946,1	-22,106
946,3	-23,167
946,5	-24,021
946,7	-23,612
946,9	-23,464
947,1	-16,203
947,4	-16,516
947,6	-14,535
947,8	-14,167
948	-22,303
948,2	-17,304
948,4	-14,649
948,6	-17,783
948,8	-21,068
949	-21,591
949,2	-19,473
949,4	-16,342
949,6	-17,973
949,8	-15,19
950	-17,519
950,2	-16,224
950,5	-20,673
950,7	-18,915
950,9	-14,829
951,1	-19,87
951,3	-19,072
951,5	-21,6
951,7	-21,808
951,9	-20,575
952,1	-22,015
952,3	-22,1
952,5	-25,595
952,7	-24,113
952,9	-23,769
953,1	-23,857
953,3	-19,994
953,5	-18,642
953,8	-20,024
954	-17,989
954,2	-22,368
954,4	-25,594
954,6	-28,669
954,8	-28,549
955	-33,008
955,2	-37,671
955,4	-37,614
955,6	-40,276
955,8	-36,64
956	-35,242
956,2	-33,477
956,4	-38,515
956,6	-36,74
956,8	-38,095
957	-36,007
957,2	-31,196
957,5	-28,736
957,7	-28,626
957,9	-25,679
958,1	-26,891
958,3	-29,831
958,5	-33,872
958,7	-38,867
958,9	-39,428
959,1	-33,066
959,3	-39,008
959,5	-37,031
959,7	-43,619
959,9	-46,761
960,1	-46,635
960,3	-47,852
960,5	-48,678
960,7	-58,51
960,9	-62,475
961,1	-61,702
961,4	-59,564
961,6	-60,06
961,8	-59,47
962	-61,525
962,2	-64,326
962,4	-66,941
962,6	-59,804
962,8	-60,654
963	-60,388
963,2	-59,453
963,4	-54,881
963,6	-55,755
963,8	-52,717
964	-52,952
964,2	-50,834
964,4	-51,403
964,6	-57,625
964,8	-56,44
965	-49,589
965,2	-47,323
965,5	-45,766
965,7	-47,158
965,9	-45,574
966,1	-42,926
966,3	-39,265
966,5	-40,593
966,7	-40,79
966,9	-38,037
967,1	-38,863
967,3	-39,157
967,5	-39,557
967,7	-38,063
967,9	-31,248
968,1	-28,126
968,3	-27,915
968,5	-28,562
968,7	-28,978
968,9	-25,999
969,1	-22,138
969,3	-22,356
969,5	-24,587
969,7	-25,77
969,9	-27,735
970,2	-28,107
970,4	-32,081
970,6	-31,364
970,8	-29,618
971	-27,823
971,2	-24,974
971,4	-26,745
971,6	-31,673
971,8	-23,352
972	-26,14
972,2	-25,101
972,4	-22,314
972,6	-16,306
972,8	-13,999
973	-10,933
973,2	-9,254
973,4	-3,754
973,6	-0,748
973,8	-2,338
974	-5,353
974,2	-4,806
974,4	-5,955
974,6	-4,527
974,8	-0,817
975	-5,156
975,2	-1,447
975,5	-0,87
975,7	-3,177
975,9	-10,962
976,1	-3,858
976,3	-5,028
976,5	-2,501
976,7	-5,801
976,9	-7,266
977,1	-8,538
977,3	-10,428
977,5	-14,347
977,7	-18,258
977,9	-15,799
978,1	-16,245
978,3	-19,253
978,5	-19,427
978,7	-23,594
978,9	-20,907
979,1	-20,481
979,3	-24,228
979,5	-20,797
979,7	-23,681
979,9	-23,018
980,1	-21,539
980,3	-27,663
980,5	-27,886
980,7	-24,704
980,9	-24,215
981,1	-21,748
981,3	-21,768
981,5	-28,286
981,7	-25,707
981,9	-18,975
982,2	-18,745
982,4	-19,86
982,6	-24,994
982,8	-21,872
983	-18,016
983,2	-14,557
983,4	-16,304
983,6	-12,121
983,8	-9,749
984	-7,044
984,2	-7,697
984,4	-9,635
984,6	-8,163
984,8	-8,039
985	-10,468
985,2	-14,913
985,4	-14,133
985,6	-14,498
985,8	-20,83
986	-19,419
986,2	-22,111
986,4	-16,752
986,6	-19,449
986,8	-16,288
987	-10,333
987,2	-15,767
987,4	-16,133
987,6	-16,05
987,8	-11,154
988	-11,201
988,2	-9,915
988,4	-12,288
988,6	-15,981
988,8	-19,625
989	-17,144
989,2	-14,354
989,4	-9,012
989,6	-8,305
989,8	-7,075
990	-7,818
990,2	-11,732
990,4	-12,866
990,6	-11,543
990,8	-10,922
991	-9,993
991,3	-8,846
991,5	-9,981
991,7	-7,623
991,9	-11,112
992,1	-11,242
992,3	-7,845
992,5	-9,722
992,7	-9,027
992,9	-8,991
993,1	-12,327
993,3	-15,808
993,5	-20,834
993,7	-23,407
993,9	-19,676
994,1	-22,988
994,3	-29,686
994,5	-32,141
994,7	-31,035
994,9	-28,733
995,1	-23,916
995,3	-27,648
995,5	-29,828
995,7	-26,411
995,9	-28,226
996,1	-27,272
996,3	-29,443
996,5	-34,522
996,7	-36,778
996,9	-41,084
997,1	-43,137
997,3	-44,163
997,5	-40,187
997,7	-40,368
997,9	-38,163
998,1	-34,7
998,3	-34,646
998,5	-34,702
998,7	-36,529
998,9	-37,753
999,1	-38,118
999,3	-42,274
999,5	-43,891
999,7	-46,366
999,9	-50,776
1000,1	-54,92
1000,3	-55,483
1000,5	-54,991
1000,7	-55,881
1000,9	-50,372
1001,1	-45,584
1001,3	-44,214
1001,5	-43,559
1001,7	-44,563
1001,9	-45,692
1002,1	-46,183
1002,3	-45,224
1002,5	-48,448
1002,7	-44,348
1002,9	-50,758
1003,1	-49,673
1003,3	-49,209
1003,5	-51,849
1003,7	-50,943
1003,9	-50
1004,1	-51,689
1004,3	-50,714
1004,5	-51,743
1004,7	-52,105
1004,9	-55,248
1005,1	-57,281
1005,3	-58,786
1005,5	-53,636
1005,7	-45,895
1005,9	-43,919
1006,1	-43,353
1006,3	-43,384
1006,5	-40,536
1006,7	-40,996
1006,9	-41,788
1007,1	-42,93
1007,3	-44,626
1007,5	-45,339
1007,7	-47,793
1007,9	-49,714
1008,1	-52,894
1008,3	-52,001
1008,5	-54,111
1008,7	-53,417
1008,9	-49,898
1009,1	-44,473
1009,3	-40,881
1009,5	-41,099
1009,7	-43,073
1009,9	-41,912
1010,1	-46,308
1010,3	-44,476
1010,5	-45,938
1010,7	-43,275
1010,9	-47,98
1011,1	-46,283
1011,3	-48,509
1011,5	-51,574
1011,7	-47,055
1011,9	-45,7
1012,1	-43,089
1012,3	-45,028
1012,5	-48,15
1012,7	-48,752
1012,9	-47,655
1013,1	-54,223
1013,3	-51,812
1013,5	-55,443
1013,7	-57,373
1013,9	-59,929
1014,1	-62,249
1014,3	-64,778
1014,5	-65,242
1014,7	-63,896
1014,9	-68,474
1015,1	-63,071
1015,3	-67,385
1015,5	-68,328
1015,7	-65,909
1015,9	-67,22
1016,1	-71,612
1016,3	-75,383
1016,5	-75,124
1016,7	-77,164
1016,9	-78,64
1017,1	-74,835
1017,3	-76,026
1017,5	-68,718
1017,7	-73,703
1017,9	-83,081
1018,1	-79,867
1018,3	-82,52
1018,5	-78,271
1018,7	-74,379
1018,9	-73,025
1019,1	-73,854
1019,2	-70,345
1019,4	-69,346
1019,6	-72,137
1019,8	-70,308
1020	-71,194
1020,2	-69,523
1020,4	-72,265
1020,6	-71,473
1020,8	-61,035
1021	-61,138
1021,2	-68,645
1021,4	-69,304
1021,6	-69,694
1021,8	-71,141
1022	-70,798
1022,2	-68,172
1022,4	-67,109
1022,6	-67,253
1022,8	-69,758
1023	-66,432
1023,2	-66,21
1023,4	-64,917
1023,6	-61,792
1023,8	-60,192
1024	-60,005
1024,2	-57,592
1024,4	-57,286
1024,6	-51,982
1024,8	-55,423
1025	-56,487
1025,2	-51,826
1025,4	-58,247
1025,6	-56,564
1025,8	-61,237
1026	-64,046
1026,2	-61,883
1026,4	-61,618
1026,6	-63,325
1026,8	-63,841
1027	-61,007
1027,2	-57,116
1027,4	-57,278
1027,6	-53,549
1027,8	-52,617
1028	-51,064
1028,1	-47,974
1028,3	-46,216
1028,5	-43,12
1028,7	-43,69
1028,9	-41,746
1029,1	-42,334
1029,3	-44,29
1029,5	-53,459
1029,7	-54,728
1029,9	-54,106
1030,1	-56,793
1030,3	-53,371
1030,5	-55,511
1030,7	-62,649
1030,9	-64,81
1031,1	-64,181
1031,3	-59,199
1031,5	-67,044
1031,7	-62,179
1031,9	-61,18
1032,1	-58,034
1032,3	-60,782
1032,5	-56,743
1032,7	-58,515
1032,9	-67,831
1033,1	-66,869
1033,3	-64,394
1033,5	-67,799
1033,7	-67,933
1033,9	-68,618
1034,1	-68,997
1034,3	-70,489
1034,4	-76,631
1034,6	-78,976
1034,8	-75,948
1035	-78,766
1035,2	-79,202
1035,4	-82,425
1035,6	-82,359
1035,8	-84,677
1036	-80,881
1036,2	-86,886
1036,4	-84,531
1036,6	-84,74
1036,8	-81,644
1037	-78,472
1037,2	-81,414
1037,4	-77,516
1037,6	-74,997
1037,8	-73,619
1038	-70,085
1038,2	-73,01
1038,4	-73,147
1038,6	-75,658
1038,8	-73,692
1039	-76,068
1039,2	-82,599
1039,4	-82,187
1039,5	-85,906
1039,7	-88,917
1039,9	-91,961
1040,1	-93,045
1040,3	-90,674
1040,5	-93,799
1040,7	-93,47
1040,9	-93,797
1041,1	-94,574
1041,3	-91,312
1041,5	-88,793
1041,7	-84,895
1041,9	-82,839
1042,1	-83,971
1042,3	-88,401
1042,5	-87,671
1042,7	-84,387
1042,9	-83,381
1043,1	-83,159
1043,3	-93,337
1043,5	-90,152
1043,7	-92,596
1043,8	-96,623
1044	-99,189
1044,2	-97,165
1044,4	-101,814
1044,6	-99,248
1044,8	-99,352
1045	-100,498
1045,2	-97,507
