Data from mesure_FLMT021711__7__29.txt Node

Date: Mon Nov 04 11:51:30 CET 2024
User: jordan.swietlicki
Spectrometer: FLMT02171
Trigger mode: 0
Integration Time (sec): 1,000000E-1
Scans to average: 15
Electric dark correction enabled: true
Nonlinearity correction enabled: false
Boxcar width: 15
XAxis mode: Wavelengths
Number of Pixels in Spectrum: 3648
>>>>>Begin Spectral Data<<<<<
194,7	-38,063
194,9	-36,428
195,2	-31,349
195,5	-30,701
195,7	-27,843
196	-26,633
196,2	-26,128
196,5	-28,066
196,8	-27,665
197	-26,319
197,3	-25,688
197,6	-23,345
197,8	-23,329
198,1	-21,507
198,4	-19,792
198,6	-18,526
198,9	-15,566
199,2	-12,122
199,4	-7,895
199,7	-1,215
200	-1,272
200,2	-4,221
200,5	-3,825
200,7	-4,21
201	-3,248
201,3	-3,116
201,5	-2,237
201,8	-2,185
202,1	-0,85
202,3	-0,755
202,6	-0,597
202,9	-1,415
203,1	-0,374
203,4	-2,641
203,7	-2,52
203,9	-3,286
204,2	-2,894
204,5	-1,532
204,7	0,421
205	1,866
205,2	2,19
205,5	2,767
205,8	2,711
206	6,229
206,3	6,765
206,6	7,697
206,8	7,912
207,1	8,417
207,4	10,005
207,6	12,075
207,9	12,245
208,2	12,796
208,4	14,953
208,7	14,24
208,9	15,662
209,2	15,417
209,5	14,991
209,7	15,025
210	15,013
210,3	14,979
210,5	16,469
210,8	16,035
211,1	16,597
211,3	16,737
211,6	16,111
211,9	16,28
212,1	16,443
212,4	16,239
212,6	15,824
212,9	15,786
213,2	13,931
213,4	14,549
213,7	14,998
214	14,949
214,2	11,868
214,5	11,468
214,8	10,966
215	10,231
215,3	13,49
215,5	14,282
215,8	12,803
216,1	12,245
216,3	12,954
216,6	11,732
216,9	11,687
217,1	12,418
217,4	12,022
217,7	11,758
217,9	9,82
218,2	9,586
218,5	9,552
218,7	7,361
219	8,115
219,2	9,616
219,5	9,13
219,8	10,378
220	10,442
220,3	11,389
220,6	11,781
220,8	10,438
221,1	10,318
221,4	10,306
221,6	10,076
221,9	10,687
222,1	10,122
222,4	9,782
222,7	10,755
222,9	8,047
223,2	7,267
223,5	4,74
223,7	5,916
224	5,098
224,2	4,544
224,5	5,143
224,8	5,219
225	5,26
225,3	4,325
225,6	4,035
225,8	5,72
226,1	7,682
226,4	6,931
226,6	5,464
226,9	7,006
227,1	7,018
227,4	6,109
227,7	5,287
227,9	4,966
228,2	5,181
228,5	3,793
228,7	3,378
229	4,385
229,3	4,853
229,5	8,285
229,8	7,523
230	6,667
230,3	4,891
230,6	6,033
230,8	4,615
231,1	6,565
231,4	6,939
231,6	10,838
231,9	9,662
232,1	11,283
232,4	11,065
232,7	9,771
232,9	8,866
233,2	8,157
233,5	7,957
233,7	9,458
234	8,357
234,2	6,984
234,5	7,991
234,8	10,857
235	10,661
235,3	10,978
235,6	10,899
235,8	11,468
236,1	12,867
236,4	12,388
236,6	13,863
236,9	14,127
237,1	15,243
237,4	15,213
237,7	11,536
237,9	11,419
238,2	10,295
238,5	12,509
238,7	11,951
239	11,883
239,2	11,204
239,5	12,773
239,8	9,333
240	7,896
240,3	9,25
240,6	9,552
240,8	9,492
241,1	11,027
241,3	11,189
241,6	10,242
241,9	7,636
242,1	8,421
242,4	10,05
242,7	9,563
242,9	9,1
243,2	8,937
243,4	8,798
243,7	8,462
244	7,64
244,2	7,157
244,5	7,372
244,8	7,787
245	8,379
245,3	8,726
245,5	8,794
245,8	10,005
246,1	9,548
246,3	9,307
246,6	9,303
246,9	10,503
247,1	11,283
247,4	12,109
247,6	12,879
247,9	13,335
248,2	14,221
248,4	11,257
248,7	10,951
248,9	11,687
249,2	11,574
249,5	11,845
249,7	12,038
250	11,528
250,3	10,186
250,5	8,3
250,8	10,016
251	8,798
251,3	9,56
251,6	11,151
251,8	11,449
252,1	10,808
252,4	8,779
252,6	9,107
252,9	7,776
253,1	6,29
253,4	4,246
253,7	4,872
253,9	5,935
254,2	6,441
254,4	6,335
254,7	5,943
255	6,169
255,2	6,942
255,5	6,082
255,8	5,362
256	5,513
256,3	5,17
256,5	5,72
256,8	5,641
257,1	5,815
257,3	4,023
257,6	4,649
257,8	5,607
258,1	7,553
258,4	8,594
258,6	9,782
258,9	9,805
259,2	8,451
259,4	7,467
259,7	3,703
259,9	2,285
260,2	4,291
260,5	5,754
260,7	4,909
261	4,363
261,2	4,385
261,5	4,419
261,8	3,42
262	3,884
262,3	3,955
262,6	4,042
262,8	3,337
263,1	2,36
263,3	0,916
263,6	1,504
263,9	0,557
264,1	-0,288
264,4	1,112
264,6	1,436
264,9	0,61
265,2	0,595
265,4	0,987
265,7	1,979
266	0,678
266,2	1,704
266,5	1,319
266,7	-0,97
267	-3,173
267,3	-1,743
267,5	-0,167
267,8	3,035
268	3,601
268,3	2,756
268,6	1,685
268,8	3,654
269,1	2,726
269,3	1,809
269,6	1,606
269,9	1,557
270,1	-0,491
270,4	0,229
270,6	0,957
270,9	0,516
271,2	-0,276
271,4	-2,863
271,7	-4,889
272	-5,598
272,2	-3,663
272,5	-5,677
272,7	-4,568
273	-3,033
273,3	-2,743
273,5	-0,936
273,8	-1,8
274	-0,359
274,3	-2,837
274,6	-3,199
274,8	0,572
275,1	2,183
275,3	3,08
275,6	2,164
275,9	1,002
276,1	1,979
276,4	1,964
276,6	2,65
276,9	2,043
277,2	3,789
277,4	4,28
277,7	6,331
277,9	6,094
278,2	7,123
278,5	8,292
278,7	8,7
279	8,319
279,2	7,946
279,5	10,223
279,8	12,286
280	13,335
280,3	10,412
280,5	10,11
280,8	9,122
281,1	8,587
281,3	9,473
281,6	8,036
281,9	9,269
282,1	8,36
282,4	8,685
282,6	9,937
282,9	7,723
283,2	5,649
283,4	4,468
283,7	4,182
283,9	3,212
284,2	3,921
284,5	3,382
284,7	2,424
285	1,832
285,2	0,361
285,5	1,809
285,8	0,636
286	5,113
286,3	5,675
286,5	4,023
286,8	3,944
287,1	6,03
287,3	6,871
287,6	6,075
287,8	5,901
288,1	4,487
288,4	5,109
288,6	7,757
288,9	8,089
289,1	7,806
289,4	4,966
289,7	6,131
289,9	4,219
290,2	5,558
290,4	7,38
290,7	5,996
290,9	4,951
291,2	6,618
291,5	8,609
291,7	9,865
292	11,415
292,2	10,242
292,5	11,924
292,8	13,833
293	13,105
293,3	14,153
293,5	15,967
293,8	15,515
294,1	12,581
294,3	11,178
294,6	11,672
294,8	11,966
295,1	11,449
295,4	11,302
295,6	11,694
295,9	12,2
296,1	11,868
296,4	12,343
296,7	9,1
296,9	9,118
297,2	8,134
297,4	10,54
297,7	9,744
298	10,827
298,2	10,567
298,5	11,242
298,7	12,765
299	14,561
299,3	13,772
299,5	11,189
299,8	11,31
300	11,457
300,3	12,071
300,5	12,245
300,8	10,597
301,1	12,716
301,3	13,644
301,6	10,827
301,8	9,843
302,1	8,394
302,4	8,304
302,6	8,142
302,9	8,243
303,1	6,999
303,4	7,451
303,7	8,251
303,9	6,535
304,2	7,365
304,4	7,572
304,7	9,084
304,9	7,169
305,2	9,375
305,5	8,696
305,7	7,587
306	8,115
306,2	8,711
306,5	7,693
306,8	6,678
307	4,725
307,3	5,388
307,5	5,807
307,8	3,718
308,1	2,356
308,3	3,193
308,6	1,379
308,8	2,171
309,1	2,115
309,3	2,021
309,6	1,647
309,9	3,706
310,1	4,54
310,4	6,275
310,6	6,395
310,9	5,422
311,2	5,871
311,4	5,728
311,7	6,177
311,9	6,969
312,2	7,753
312,5	7,101
312,7	7,78
313	7,893
313,2	7,953
313,5	7,651
313,7	7,429
314	6,143
314,3	4,713
314,5	5,894
314,8	6,946
315	8,319
315,3	6,95
315,6	5,422
315,8	5,528
316,1	5,766
316,3	3,789
316,6	4,857
316,8	4,159
317,1	2,892
317,4	1,711
317,6	1,383
317,9	0,433
318,1	0,214
318,4	0,214
318,6	-0,593
318,9	-1,057
319,2	-1,381
319,4	-2,207
319,7	-3,591
319,9	-3,95
320,2	-4,229
320,5	-2,984
320,7	-3,795
321	-3,403
321,2	-4,678
321,5	-3,818
321,7	-2,641
322	-1,672
322,3	-2,369
322,5	-3,237
322,8	-5,462
323	-5,387
323,3	-3,38
323,5	-1,577
323,8	-0,525
324,1	-0,499
324,3	1,342
324,6	0,093
324,8	1,557
325,1	0,618
325,4	0,746
325,6	2,236
325,9	1,885
326,1	3,035
326,4	1,843
326,6	1,459
326,9	3,42
327,2	3,921
327,4	4,645
327,7	5,2
327,9	6,871
328,2	6,705
328,4	5,766
328,7	8,424
329	9,239
329,2	9,405
329,5	8,753
329,7	8,93
330	9,639
330,2	12,354
330,5	13,354
330,8	13,855
331	14,38
331,3	12,581
331,5	12,867
331,8	11,672
332	11,736
332,3	9,288
332,6	9,201
332,8	8,202
333,1	9,235
333,3	11,019
333,6	10,997
333,8	12,302
334,1	11,63
334,4	10,838
334,6	10,461
334,9	9,152
335,1	8,783
335,4	7,866
335,6	9,02
335,9	6,618
336,2	5,321
336,4	5,83
336,7	3,48
336,9	4,227
337,2	3,914
337,4	3,763
337,7	2,805
338	0,206
338,2	-0,382
338,5	-3,029
338,7	-2
339	-2,121
339,2	0,267
339,5	-1,589
339,8	-0,876
340	-0,174
340,3	1,153
340,5	2,266
340,8	5,109
341	5,302
341,3	3,118
341,6	3,476
341,8	2,703
342,1	0,565
342,3	1,115
342,6	2,594
342,8	3,107
343,1	3,51
343,4	3,608
343,6	1,73
343,9	3,043
344,1	4,408
344,4	3,616
344,6	2,786
344,9	2,496
345,1	2,605
345,4	2,383
345,7	2,545
345,9	4,31
346,2	3,012
346,4	3,691
346,7	2,254
346,9	2,571
347,2	0,297
347,5	2,002
347,7	2,183
348	0,459
348,2	1,308
348,5	1,508
348,7	3,073
349	2,937
349,2	4,453
349,5	3,906
349,8	4,668
350	6,199
350,3	6,463
350,5	5,932
350,8	6,162
351	5,751
351,3	7,04
351,6	6,81
351,8	5,864
352,1	5,211
352,3	6,331
352,6	8,217
352,8	7,346
353,1	7,659
353,3	7,742
353,6	7,003
353,9	6,365
354,1	6,052
354,4	6,535
354,6	8,311
354,9	7,04
355,1	8,489
355,4	8,096
355,6	8,383
355,9	8,877
356,2	9,386
356,4	10,001
356,7	5,652
356,9	5,754
357,2	5,626
357,4	6,071
357,7	4,943
358	7,01
358,2	7,006
358,5	6,622
358,7	5,641
359	7,006
359,2	7,576
359,5	7,847
359,7	10,19
360	11,351
360,3	12,596
360,5	11,268
360,8	11,902
361	13,014
361,3	11,593
361,5	13,263
361,8	13,757
362	15,413
362,3	15,979
362,6	16,122
362,8	18,306
363,1	18,46
363,3	19,712
363,6	20,173
363,8	21,564
364,1	19,162
364,3	18,46
364,6	19,777
364,8	20,225
365,1	19,592
365,4	21,481
365,6	22,586
365,9	21,666
366,1	22,371
366,4	22,311
366,6	23,672
366,9	23,737
367,1	23,318
367,4	26,094
367,7	25,845
367,9	25,66
368,2	24,532
368,4	23,522
368,7	24,129
368,9	25,509
369,2	25,03
369,4	25,453
369,7	26,626
370	25,924
370,2	24,966
370,5	24,521
370,7	23,797
371	24,506
371,2	23,669
371,5	24,498
371,7	24,483
372	25,867
372,2	26,565
372,5	27,418
372,8	27,897
373	27,199
373,3	24,578
373,5	26,079
373,8	24,959
374	24,114
374,3	26,075
374,5	26,659
374,8	28,142
375	28,357
375,3	27,697
375,6	26,607
375,8	27,602
376,1	29,054
376,3	31,181
376,6	30,631
376,8	27,749
377,1	31,076
377,3	30,895
377,6	29,805
377,8	30,284
378,1	32,351
378,4	33,467
378,6	33,512
378,9	32,385
379,1	33,58
379,4	32,237
379,6	31,253
379,9	30,257
380,1	29,745
380,4	29,386
380,6	29,33
380,9	30,024
381,2	30,785
381,4	30,299
381,7	32,23
381,9	33,463
382,2	33,674
382,4	32,962
382,7	30,616
382,9	30,646
383,2	31,23
383,4	32,358
383,7	34,168
383,9	32,965
384,2	33,248
384,5	35,839
384,7	37,533
385	37,148
385,2	38,37
385,5	39,671
385,7	40,493
386	41,655
386,2	41,342
386,5	40,535
386,7	42,213
387	41,904
387,2	44,581
387,5	48,198
387,8	50,027
388	52,249
388,3	53,557
388,5	55,79
388,8	58,438
389	60,463
389,3	60,01
389,5	59,234
389,8	61,149
390	60,271
390,3	61,983
390,5	63,239
390,8	66,569
391,1	66,735
391,3	67,866
391,6	68,025
391,8	70,25
392,1	71,14
392,3	72,63
392,6	74,353
392,8	76,103
393,1	79,173
393,3	81,289
393,6	82,726
393,8	83,126
394,1	86,863
394,4	91,747
394,6	95,564
394,9	99,403
395,1	101,9
395,4	102,952
395,6	107,369
395,9	109,85
396,1	112,796
396,4	115,172
396,6	117,902
396,9	119,89
397,1	123,733
397,4	129,247
397,6	131,834
397,9	136,959
398,2	141,572
398,4	147,486
398,7	150,295
398,9	154,165
399,2	158,423
399,4	161,825
399,7	164,269
399,9	167,414
400,2	168,9
400,4	173,037
400,7	177,393
400,9	179,577
401,2	183,94
401,4	187,471
401,7	191,114
401,9	193,23
402,2	192,928
402,5	194,361
402,7	194,357
403	196,635
403,2	199,875
403,5	201,293
403,7	203,688
404	206,433
404,2	207,618
404,5	210,895
404,7	215,093
405	218,385
405,2	220,882
405,5	223,94
405,7	226,316
406	227,18
406,2	228,874
406,5	231,14
406,7	232,219
407	232,6
407,3	234,142
407,5	236,458
407,8	238,924
408	240,41
408,3	242,032
408,5	243,918
408,8	244,05
409	246,377
409,3	248,025
409,5	250,465
409,8	251,536
410	255,647
410,3	257,846
410,5	263,318
410,8	263,518
411	264,529
411,3	267,007
411,5	268,625
411,8	269,047
412	270,514
412,3	271,378
412,6	273,12
412,8	272,781
413,1	272,042
413,3	273,049
413,6	273,505
413,8	274,757
414,1	274,659
414,3	275,002
414,6	276,869
414,8	276,564
415,1	276,533
415,3	277,412
415,6	279,37
415,8	280,229
416,1	281,327
416,3	280,441
416,6	282,903
416,8	281,131
417,1	283,047
417,3	281,719
417,6	283,68
417,8	284,616
418,1	285,317
418,4	284,997
418,6	286,675
418,9	287,644
419,1	287,233
419,4	287,369
419,6	287,456
419,9	288,451
420,1	287,957
420,4	287,192
420,6	288,199
420,9	287,173
421,1	286,283
421,4	287,444
421,6	286,554
421,9	286,599
422,1	284,635
422,4	284,548
422,6	287,41
422,9	286,894
423,1	286,909
423,4	286,924
423,6	286,999
423,9	288,127
424,1	289,798
424,4	288,957
424,6	288,315
424,9	286,728
425,1	287,105
425,4	283,684
425,6	283,364
425,9	280,331
426,2	279,196
426,4	276,99
426,7	274,964
426,9	271,861
427,2	268,187
427,4	266,128
427,7	264,872
427,9	261,911
428,2	260,995
428,4	261,221
428,7	263,096
428,9	263,627
429,2	263,277
429,4	264,563
429,7	263,707
429,9	262,971
430,2	262,047
430,4	261,519
430,7	263,009
430,9	262,93
431,2	261,806
431,4	262,538
431,7	261,368
431,9	259,302
432,2	260,905
432,4	262,096
432,7	263,247
432,9	265,77
433,2	269,639
433,4	269,56
433,7	272,332
433,9	272,456
434,2	273,656
434,4	274,327
434,7	277,258
434,9	280,501
435,2	281,24
435,4	281,768
435,7	285,095
435,9	285,046
436,2	285,445
436,4	284,201
436,7	283,959
436,9	282,975
437,2	281,455
437,4	283,062
437,7	286,354
437,9	288,346
438,2	287,648
438,4	287,618
438,7	288,975
438,9	289,564
439,2	288,606
439,4	286,92
439,7	289,096
439,9	288,436
440,2	287,305
440,5	287,599
440,7	286,256
441	285,543
441,2	286,924
441,5	286,731
441,7	287,071
442	287,765
442,2	288,387
442,5	288,142
442,7	289,383
443	290,914
443,2	292,257
443,5	290,895
443,7	292
444	290,729
444,2	292,434
444,5	294,203
444,7	296,043
445	297,035
445,2	296,82
445,5	295,044
445,7	294,889
446	295,798
446,2	296,066
446,5	295,911
446,7	297,178
447	298,298
447,2	300,097
447,5	301,153
447,7	299,856
448	300,788
448,2	301,591
448,5	301,549
448,7	302,526
449	300,935
449,2	300,644
449,5	300,701
449,7	300,237
450	300,184
450,2	302,338
450,5	300,976
450,7	302,145
451	301,5
451,2	302,76
451,5	301,878
451,7	303,65
452	304,91
452,2	304,438
452,5	303,661
452,7	304,408
452,9	304,974
453,2	305,89
453,4	307,112
453,7	308,527
453,9	307,791
454,2	306,969
454,4	305,6
454,7	307,192
454,9	306,49
455,2	304,555
455,4	305,313
455,7	307,29
455,9	305,917
456,2	306,445
456,4	305,577
456,7	306,23
456,9	306,245
457,2	306,581
457,4	308,881
457,7	310,756
457,9	310,175
458,2	311,427
458,4	311,755
458,7	312,649
458,9	311,608
459,2	312,69
459,4	314,946
459,7	316,07
459,9	315,345
460,2	315,696
460,4	314,768
460,7	316,752
460,9	317,797
461,2	317,473
461,4	316,164
461,7	318,167
461,9	318,008
462,2	318,05
462,4	316,345
462,7	318,453
462,9	317,846
463,2	318,114
463,4	316,564
463,7	317,031
463,9	316,699
464,2	316,53
464,4	316,266
464,7	317,352
464,9	316,202
465,2	315,53
465,4	314,87
465,7	315,87
465,9	316,692
466,2	316,481
466,4	315,56
466,6	317,273
466,9	315,557
467,1	312,042
467,4	310,563
467,6	311,325
467,9	309,828
468,1	310,133
468,4	307,41
468,6	305,838
468,9	304,585
469,1	304,453
469,4	304,608
469,6	305,385
469,9	304,887
470,1	306,584
470,4	303,892
470,6	306,403
470,9	307,629
471,1	308,534
471,4	307,606
471,6	307,474
471,9	308,738
472,1	309,168
472,4	308,085
472,6	310,16
472,9	309,119
473,1	309,862
473,4	310,031
473,6	308,949
473,9	307,146
474,1	308,572
474,3	307,648
474,6	310,571
474,8	310,405
475,1	310,375
475,3	308,983
475,6	310,05
475,8	311,28
476,1	313,022
476,3	312,785
476,6	314,406
476,8	314,414
477,1	315,342
477,3	315,775
477,6	317,918
477,8	317,148
478,1	318,419
478,3	318,751
478,6	320,079
478,8	318,71
479,1	319,249
479,3	318,679
479,6	319,264
479,8	319,551
480,1	321,206
480,3	321,071
480,5	321,874
480,8	319,965
481	320,075
481,3	320,565
481,5	322,885
481,8	321,195
482	322,523
482,3	320,109
482,5	319,464
482,8	318,05
483	317,974
483,3	318,216
483,5	319,634
483,8	318,653
484	318,736
484,3	315,975
484,5	316,582
484,8	315,96
485	315,432
485,2	313,218
485,5	314,101
485,7	313,516
486	312,411
486,2	311,057
486,5	313,686
486,7	313,607
487	316,341
487,2	314,218
487,5	314,55
487,7	315,112
488	313,826
488,2	313,03
488,5	313,573
488,7	311,155
489	309,794
489,2	308,27
489,5	308,587
489,7	308,504
489,9	307,829
490,2	308,232
490,4	309,047
490,7	311,046
490,9	309,986
491,2	308,15
491,4	309,206
491,7	310,944
491,9	312,136
492,2	311,879
492,4	310,529
492,7	310,861
492,9	312,343
493,2	312,162
493,4	311,423
493,6	309,805
493,9	309,138
494,1	305,291
494,4	304,846
494,6	301,602
494,9	300,497
495,1	298,94
495,4	297,193
495,6	297,114
495,9	297,778
496,1	297,638
496,4	298,664
496,6	300,252
496,9	303,126
497,1	301,942
497,3	300,241
497,6	299,999
497,8	301,768
498,1	299,739
498,3	297,955
498,6	295,594
498,8	294,078
499,1	293,264
499,3	292,453
499,6	293,147
499,8	291,702
500,1	289,737
500,3	288,881
500,6	287,882
500,8	286,045
501	286,716
501,3	285,227
501,5	283,514
501,8	284,016
502	284,827
502,3	283,352
502,5	282,289
502,8	282,485
503	283,609
503,3	281,478
503,5	278,321
503,8	278,227
504	276,737
504,2	275,221
504,5	272,094
504,7	273,056
505	272,143
505,2	273,362
505,5	272,358
505,7	273,124
506	272,174
506,2	274,414
506,5	273,188
506,7	270,812
506,9	269,043
507,2	267,81
507,4	265,442
507,7	266,863
507,9	266,565
508,2	266,592
508,4	264,74
508,7	263,68
508,9	263,314
509,2	264,45
509,4	264,208
509,7	263,118
509,9	263,82
510,1	262,99
510,4	260,554
510,6	256,873
510,9	258,151
511,1	259,354
511,4	259,109
511,6	258,453
511,9	255,828
512,1	253,678
512,4	253,132
512,6	252,106
512,8	249,42
513,1	246,614
513,3	245,151
513,6	242,779
513,8	241,376
514,1	239,385
514,3	236,383
514,6	235,477
514,8	231,996
515,1	231,898
515,3	228,87
515,5	227,135
515,8	225,426
516	225,064
516,3	222,526
516,5	220,916
516,8	218,219
517	215,922
517,3	214,221
517,5	212,867
517,7	213,196
518	212,102
518,2	210,541
518,5	208,847
518,7	206,78
519	203,609
519,2	202,515
519,5	202,138
519,7	199,984
520	197,201
520,2	196,45
520,4	197,174
520,7	198,845
520,9	197,68
521,2	197,208
521,4	195,093
521,7	196,605
521,9	197,503
522,2	194,889
522,4	196,511
522,6	195,847
522,9	195,9
523,1	195,281
523,4	194,795
523,6	192,92
523,9	193,81
524,1	193,931
524,4	191,83
524,6	190,446
524,8	187,308
525,1	185,77
525,3	185,317
525,6	185,185
525,8	185,822
526,1	184,619
526,3	185,291
526,6	184,721
526,8	182,519
527	184,178
527,3	184,566
527,5	184,242
527,8	183,552
528	180,889
528,3	180,463
528,5	180,026
528,8	179,004
529	178,721
529,2	179,86
529,5	178,626
529,7	181,772
530	180,561
530,2	181,255
530,5	178,702
530,7	176,963
531	175,194
531,2	175,402
531,4	174,184
531,7	174,187
531,9	174,384
532,2	174,825
532,4	175,481
532,7	175,647
532,9	173,633
533,2	172,43
533,4	171,642
533,6	170,469
533,9	167,916
534,1	166,697
534,4	167,082
534,6	166,426
534,9	165,053
535,1	164,008
535,3	163,152
535,6	163,36
535,8	159,698
536,1	160,542
536,3	160,803
536,6	161,3
536,8	158,781
537,1	159,309
537,3	155,888
537,5	154,146
537,8	152,792
538	153,72
538,3	152,388
538,5	151,811
538,8	151,438
539	149,33
539,2	148,764
539,5	148,583
539,7	149,356
540	149,111
540,2	150,329
540,5	150,416
540,7	151,393
540,9	150,823
541,2	151,472
541,4	154,319
541,7	157,661
541,9	157,883
542,2	155,198
542,4	155,572
542,7	156,028
542,9	157,039
543,1	157,012
543,4	159,724
543,6	159,192
543,9	159,034
544,1	159,015
544,4	158,472
544,6	157,917
544,8	158,879
545,1	159,52
545,3	159,464
545,6	160,146
545,8	161,7
546,1	161,519
546,3	160,931
546,5	162,888
546,8	164,118
547	164,823
547,3	164,186
547,5	164,83
547,8	164,329
548	164,548
548,2	164,284
548,5	163,612
548,7	164,163
549	161,911
549,2	161,674
549,5	161,274
549,7	161,972
549,9	162,119
550,2	161,357
550,4	160,384
550,7	161,214
550,9	158,807
551,2	159,343
551,4	159,671
551,6	159,177
551,9	159,128
552,1	158,962
552,4	159,373
552,6	158,121
552,9	158,736
553,1	157,861
553,3	157,276
553,6	157,371
553,8	157,095
554,1	158,234
554,3	155,975
554,5	154,357
554,8	152,841
555	151,566
555,3	149,243
555,5	149,379
555,8	148,289
556	148,157
556,2	145,193
556,5	144,755
556,7	141,576
557	141,708
557,2	140,467
557,5	140,463
557,7	142,024
557,9	140,173
558,2	138,856
558,4	140,158
558,7	137,514
558,9	137,823
559,2	137,035
559,4	136,903
559,6	137,529
559,9	137,069
560,1	136,186
560,4	136,967
560,6	136,88
560,8	136,631
561,1	135,255
561,3	136,126
561,6	133,833
561,8	134,455
562,1	133,686
562,3	133,32
562,5	133,724
562,8	135,451
563	133,41
563,3	133,908
563,5	133,818
563,7	133,897
564	132,569
564,2	132,649
564,5	131,955
564,7	133,486
565	133,199
565,2	130,178
565,4	131,419
565,7	133,369
565,9	131,321
566,2	132,453
566,4	131,027
566,6	132,551
566,9	133,29
567,1	133,305
567,4	132,456
567,6	134,995
567,9	133,177
568,1	133,652
568,3	134,127
568,6	135,308
568,8	135,685
569,1	134,576
569,3	133,407
569,5	134,135
569,8	135,805
570	135,866
570,3	136,292
570,5	137,887
570,7	138,238
571	139,139
571,2	140,542
571,5	141,474
571,7	140,723
572	140,704
572,2	139,837
572,4	141,632
572,7	143,65
572,9	144,981
573,2	143,563
573,4	144,155
573,6	143,601
573,9	144,533
574,1	143,559
574,4	141,651
574,6	142,349
574,8	141,681
575,1	141,127
575,3	142,281
575,6	141,708
575,8	141,632
576	141,674
576,3	140,708
576,5	144,431
576,8	147,108
577	149,507
577,3	150,725
577,5	151,106
577,7	151,759
578	153,456
578,2	153,739
578,5	153,06
578,7	155,051
578,9	157,103
579,2	158,932
579,4	160,09
579,7	160,742
579,9	160,471
580,1	161,93
580,4	162,507
580,6	163,605
580,9	166,437
581,1	167,987
581,3	169,228
581,6	168,361
581,8	171,027
582,1	172,079
582,3	174,787
582,5	176,386
582,8	178,698
583	182,262
583,3	185,253
583,5	185,623
583,7	189,043
584	189,571
584,2	190,442
584,5	190,74
584,7	192,23
584,9	193,569
585,2	195,089
585,4	195,421
585,7	195,828
585,9	197,137
586,1	196,873
586,4	196,85
586,6	198,472
586,9	198,755
587,1	199,743
587,3	201,327
587,6	202,413
587,8	203,065
588,1	204,551
588,3	204,238
588,5	205,894
588,8	206,313
589	209,639
589,3	210,458
589,5	211,11
589,7	214,014
590	215,172
590,2	217,08
590,5	217,11
590,7	218,095
590,9	221,546
591,2	222,33
591,4	222,639
591,7	226,69
591,9	230,375
592,1	231,661
592,4	235,1
592,6	235,832
592,9	238,8
593,1	242,907
593,3	246,007
593,6	249,126
593,8	252,92
594,1	256,469
594,3	260,569
594,5	263,714
594,8	265,396
595	269,5
595,3	273,43
595,5	279,151
595,7	284,476
596	288,542
596,2	293,237
596,4	299,407
596,7	303,673
596,9	307,237
597,2	308,078
597,4	313,256
597,6	314,976
597,9	317,899
598,1	321,979
598,4	326,946
598,6	331,45
598,8	335,523
599,1	336,816
599,3	340,162
599,6	343,684
599,8	347,629
600	353,426
600,3	357,706
600,5	360,15
600,7	364,537
601	369,719
601,2	373,332
601,5	376,801
601,7	380,837
601,9	385,932
602,2	392,095
602,4	395,025
602,7	397,356
602,9	398,928
603,1	401,983
603,4	404,431
603,6	407,535
603,9	408,64
604,1	411,763
604,3	415,564
604,6	419,423
604,8	420,75
605	424,367
605,3	426,931
605,5	428,602
605,8	428,723
606	431,793
606,2	434,935
606,5	436,918
606,7	436,696
607	437,209
607,2	437,009
607,4	435,281
607,7	435,534
607,9	436,443
608,1	438,732
608,4	439,083
608,6	439,638
608,9	440,007
609,1	440,207
609,3	440,324
609,6	440,094
609,8	441,557
610,1	441,587
610,3	439,788
610,5	438,978
610,8	439,117
611	439,211
611,2	439,279
611,5	439,128
611,7	438,751
612	438,8
612,2	439
612,4	439,027
612,7	438,578
612,9	439,411
613,1	439,291
613,4	438,563
613,6	437,62
613,9	438,721
614,1	438,74
614,3	440,173
614,6	441,553
614,8	443,865
615	444,027
615,3	444,914
615,5	444,28
615,8	443,039
616	443,579
616,2	443,398
616,5	445,182
616,7	446,385
616,9	445,657
617,2	445,072
617,4	448,033
617,7	450,133
617,9	450,232
618,1	449,93
618,4	449,421
618,6	448,742
618,8	451,024
619,1	452,532
619,3	452,947
619,6	452,97
619,8	452,668
620	453,445
620,3	453,788
620,5	455,165
620,7	453,879
621	454,241
621,2	452,227
621,5	453,026
621,7	454,429
621,9	454,037
622,2	453,083
622,4	454,403
622,6	453,716
622,9	452,419
623,1	453,803
623,4	452,879
623,6	453,256
623,8	452,547
624,1	450,356
624,3	450,925
624,5	451,137
624,8	449,896
625	449,028
625,3	450,145
625,5	450,201
625,7	450,914
626	449,968
626,2	447,995
626,4	446,166
626,7	445,551
626,9	445,649
627,1	445,694
627,4	444,68
627,6	443,428
627,9	442,613
628,1	442,821
628,3	441,663
628,6	442,149
628,8	443,002
629	441,527
629,3	441,716
629,5	442,293
629,8	439,939
630	440,49
630,2	440,275
630,5	440,086
630,7	439,694
630,9	439,917
631,2	438,714
631,4	439,521
631,6	438,276
631,9	437,145
632,1	436,138
632,4	437,356
632,6	437,016
632,8	437,529
633,1	437,839
633,3	439,777
633,5	439,223
633,8	439,302
634	441,289
634,2	441,372
634,5	441,278
634,7	443,424
635	443,526
635,2	444,454
635,4	445,751
635,7	448,632
635,9	448,723
636,1	448,768
636,4	448,772
636,6	447,271
636,8	447,682
637,1	449,67
637,3	450,639
637,5	450,846
637,8	450,167
638	451,506
638,3	450,416
638,5	452,377
638,7	451,333
639	453,999
639,2	455,014
639,4	454,316
639,7	453,848
639,9	452,581
640,1	455,157
640,4	457,265
640,6	456,462
640,9	457,733
641,1	458,879
641,3	457,967
641,6	457,541
641,8	457,526
642	455,621
642,3	455,078
642,5	453,701
642,7	450,639
643	450,409
643,2	448,146
643,4	445,589
643,7	445,129
643,9	444,586
644,1	442,436
644,4	441,678
644,6	439,687
644,9	439,834
645,1	438,804
645,3	436,028
645,6	434,667
645,8	431,201
646	431,729
646,3	427,818
646,5	425,053
646,7	425,815
647	423,582
647,2	422,523
647,4	419,607
647,7	416,051
647,9	416,409
648,1	415,681
648,4	412,856
648,6	411,008
648,9	410,213
649,1	410,213
649,3	411,005
649,6	410,186
649,8	410,05
650	410,235
650,3	407,014
650,5	408,636
650,7	407,716
651	406,517
651,2	408,176
651,4	407,09
651,7	403,982
651,9	403,439
652,1	402,907
652,4	402,213
652,6	402,579
652,8	402,402
653,1	401,007
653,3	398,525
653,5	397,635
653,8	396,462
654	395,61
654,3	394,414
654,5	394,173
654,7	390,612
655	388,191
655,2	385,366
655,4	382,443
655,7	383,115
655,9	384,288
656,1	385,298
656,4	382,854
656,6	380,758
656,8	385,359
657,1	386,973
657,3	386,818
657,5	386,124
657,8	386,603
658	388,406
658,2	389,304
658,5	387,075
658,7	387,652
658,9	389,421
659,2	388,161
659,4	385,751
659,6	386,532
659,9	387,882
660,1	386,928
660,3	388,063
660,6	388,436
660,8	388,919
661	389,756
661,3	389,028
661,5	388,395
661,8	387,29
662	388,157
662,2	389,666
662,5	389,624
662,7	391,118
662,9	390,02
663,2	389,436
663,4	385,317
663,6	384,54
663,9	385,608
664,1	380,165
664,3	378,246
664,6	378,095
664,8	376,639
665	375,312
665,3	374,437
665,5	372,86
665,7	373,988
666	373,433
666,2	371,529
666,4	372,253
666,7	371,846
666,9	369,903
667,1	367,576
667,4	368,836
667,6	368,097
667,8	367,667
668,1	366,577
668,3	366,637
668,5	366,253
668,8	366,075
669	365,163
669,2	365,966
669,5	364,823
669,7	364,895
669,9	362,749
670,2	361,561
670,4	359,773
670,6	361,018
670,9	360,773
671,1	358,068
671,3	357,408
671,6	355,089
671,8	355,214
672	355,485
672,3	354,84
672,5	353,58
672,7	351,721
673	351,695
673,2	350,756
673,4	352,423
673,7	351,042
673,9	351,246
674,1	351,299
674,4	350,661
674,6	348,678
674,8	347,459
675,1	345,777
675,3	344,872
675,5	343,714
675,8	342,368
676	342,308
676,2	342,945
676,5	340,746
676,7	341,666
676,9	339,796
677,2	339,362
677,4	338,842
677,6	337,895
677,9	336,669
678,1	335,915
678,3	336,454
678,5	335,281
678,8	333,852
679	331,714
679,2	331,035
679,5	330,805
679,7	329,04
679,9	329,428
680,2	326,641
680,4	327,388
680,6	323,164
680,9	322,67
681,1	321,485
681,3	322,036
681,6	320,256
681,8	320,543
682	319,151
682,3	320,018
682,5	320,411
682,7	318,408
683	316,417
683,2	313,58
683,4	309,945
683,7	306,46
683,9	303,673
684,1	302,066
684,4	299,724
684,6	295,983
684,8	291,989
685,1	289,428
685,3	286,169
685,5	283,771
685,7	280,667
686	278,947
686,2	277,137
686,4	273,999
686,7	269,047
686,9	267,697
687,1	264,54
687,4	262,413
687,6	258,28
687,8	257,963
688,1	255,956
688,3	254,003
688,5	250,929
688,8	252,272
689	249,5
689,2	250,299
689,5	246,848
689,7	243,511
689,9	241,04
690,2	239,343
690,4	238,31
690,6	237,612
690,8	238,857
691,1	237,046
691,3	235,628
691,5	234,983
691,8	234,738
692	236,511
692,2	238,468
692,5	238,819
692,7	238,487
692,9	238,981
693,2	238,212
693,4	237,638
693,6	237,74
693,9	239,46
694,1	239,818
694,3	241,127
694,5	241,146
694,8	240,535
695	240,222
695,2	239,894
695,5	239,354
695,7	238,155
695,9	237,491
696,2	236,398
696,4	234,32
696,6	234,527
696,9	234,998
697,1	237,555
697,3	239,924
697,6	240,754
697,8	240,708
698	241,244
698,2	239,754
698,5	240,591
698,7	241,497
698,9	243,307
699,2	242,323
699,4	239,931
699,6	239,671
699,9	237,767
700,1	237,495
700,3	238,385
700,6	238,676
700,8	239,449
701	238,811
701,2	237,827
701,5	236,873
701,7	236,56
701,9	235,787
702,2	236,492
702,4	237,257
702,6	237,797
702,9	237,571
703,1	234,893
703,3	236,82
703,6	237,054
703,8	237,009
704	236,975
704,2	234,821
704,5	234,127
704,7	234,018
704,9	234,501
705,2	233,769
705,4	235,613
705,6	235,915
705,9	235,934
706,1	235,9
706,3	235,832
706,5	235,228
706,8	235,289
707	235,817
707,2	235,342
707,5	234,331
707,7	233,305
707,9	232,283
708,2	232,347
708,4	231,94
708,6	231,223
708,8	230,574
709,1	231,532
709,3	229,341
709,5	227,357
709,8	227,388
710	228,229
710,2	228,1
710,5	226,524
710,7	224,533
710,9	224,039
711,1	223,397
711,4	223,503
711,6	221,04
711,8	220,938
712,1	220,275
712,3	218,291
712,5	216,579
712,8	216,111
713	213,392
713,2	210,688
713,4	209,156
713,7	207,983
713,9	205,604
714,1	205,234
714,4	202,877
714,6	199,83
714,8	196,586
715,1	193,758
715,3	190,71
715,5	186,418
715,7	183,028
716	179,403
716,2	175,979
716,4	173,324
716,7	169,613
716,9	167,527
717,1	162,315
717,3	161,21
717,6	158,31
717,8	156,99
718	153,524
718,3	150,495
718,5	148,692
718,7	148,632
718,9	146,882
719,2	143,744
719,4	143,307
719,6	140,814
719,9	137,412
720,1	137,099
720,3	135,002
720,6	131,457
720,8	128,406
721	127,678
721,2	124,993
721,5	124,242
721,7	123,288
721,9	123,005
722,2	121,798
722,4	121,523
722,6	123,68
722,8	124,404
723,1	126,305
723,3	127,074
723,5	127,044
723,8	128,391
724	126,101
724,2	126,682
724,4	126,546
724,7	127,463
724,9	127,908
725,1	128,938
725,4	131,166
725,6	128,451
725,8	126,859
726	124,91
726,3	123,786
726,5	122,036
726,7	121,606
727	119,784
727,2	117,48
727,4	118,113
727,6	119,543
727,9	121,202
728,1	120,708
728,3	121,168
728,6	122,217
728,8	124,114
729	123,559
729,2	126,29
729,5	126,105
729,7	124,627
729,9	125,381
730,2	124,917
730,4	125,619
730,6	126,192
730,8	125,728
731,1	127,342
731,3	128,738
731,5	127,795
731,7	126,524
732	126,505
732,2	126,848
732,4	126,313
732,7	128,364
732,9	128,489
733,1	128,575
733,3	129,997
733,6	132,2
733,8	133,837
734	138,502
734,3	140,041
734,5	142,816
734,7	144,419
734,9	144,178
735,2	147,678
735,4	148,643
735,6	148,787
735,9	149,526
736,1	151,51
736,3	151,216
736,5	151,446
736,8	152,513
737	151,242
737,2	150,861
737,4	149,733
737,7	150,393
737,9	153,675
738,1	153,09
738,4	153,343
738,6	153,414
738,8	153,682
739	152,407
739,3	152,8
739,5	151,133
739,7	150,499
739,9	153,856
740,2	155,598
740,4	155,142
740,6	154,229
740,9	153,844
741,1	152,569
741,3	151,604
741,5	149,481
741,8	149,205
742	149,473
742,2	148,719
742,4	148,319
742,7	149,028
742,9	148,542
743,1	147,267
743,4	145,275
743,6	145,309
743,8	145,008
744	146,799
744,3	147,142
744,5	146,724
744,7	147,161
744,9	145,728
745,2	147,372
745,4	145,905
745,6	146,313
745,8	146,546
746,1	147,757
746,3	149,175
746,5	152,166
746,8	151,996
747	150,786
747,2	150,676
747,4	152,596
747,7	152,336
747,9	153,086
748,1	151,585
748,3	152,437
748,6	153,207
748,8	151,2
749	150,54
749,2	148,64
749,5	148,115
749,7	147,704
749,9	147,278
750,2	149,862
750,4	150,529
750,6	150,869
750,8	150,424
751,1	149,435
751,3	147,799
751,5	149,507
751,7	149,454
752	148,93
752,2	147,414
752,4	146,743
752,6	145,966
752,9	145,604
753,1	144,227
753,3	142,828
753,5	141,134
753,8	141,602
754	139,826
754,2	139,471
754,4	137,589
754,7	136,699
754,9	135,134
755,1	135,051
755,4	134,598
755,6	134,798
755,8	134,719
756	133,229
756,3	130,921
756,5	127,712
756,7	123,473
756,9	120,422
757,2	114,632
757,4	111,276
757,6	105,487
757,8	101,051
758,1	98,868
758,3	97,167
758,5	91,634
758,7	86,501
759	80,686
759,2	79,007
759,4	76,937
759,6	74,097
759,9	70,857
760,1	69,036
760,3	65,008
760,5	61,349
760,8	57,137
761	53,731
761,2	49,888
761,4	48,266
761,7	47,146
761,9	46,131
762,1	43,092
762,3	40,716
762,6	36,28
762,8	34,459
763	33,301
763,2	35,134
763,5	36,85
763,7	36,752
763,9	37,797
764,1	39,23
764,4	40,203
764,6	43,495
764,8	46,897
765	47,093
765,3	46,637
765,5	48,474
765,7	50,141
765,9	53,569
766,2	54,214
766,4	56,201
766,6	55,907
766,8	57,28
767,1	57,853
767,3	59,614
767,5	61,225
767,7	64,283
768	65,72
768,2	68,013
768,4	69,085
768,6	68,394
768,9	67,614
769,1	69,85
769,3	71,645
769,5	72,249
769,8	74,157
770	76,05
770,2	75,062
770,4	75,089
770,7	76,597
770,9	77,005
771,1	76,914
771,3	78,472
771,6	78,521
771,8	78,23
772	77,54
772,2	77,242
772,5	77,925
772,7	78,494
772,9	77,257
773,1	75,662
773,4	75,854
773,6	77,755
773,8	76,28
774	76,375
774,3	75,519
774,5	75,153
774,7	73,754
774,9	73,58
775,2	72,992
775,4	73,373
775,6	73,297
775,8	73,772
776	74,478
776,3	73,418
776,5	73,165
776,7	72,309
776,9	71,759
777,2	71,879
777,4	70,861
777,6	70,371
777,8	70,382
778,1	70,948
778,3	69,522
778,5	68,255
778,7	67,915
779	67,516
779,2	69,277
779,4	69,096
779,6	68,643
779,9	67,961
780,1	68,447
780,3	66,516
780,5	64,125
780,7	64,465
781	64,683
781,2	65,057
781,4	62,549
781,6	62,066
781,9	62,153
782,1	60,369
782,3	59,324
782,5	58,607
782,8	57,389
783	56,793
783,2	56,016
783,4	55,786
783,7	54,421
783,9	52,671
784,1	50,985
784,3	50,103
784,5	48,881
784,8	46,143
785	44,442
785,2	44,366
785,4	44,295
785,7	43,235
785,9	43,914
786,1	42,688
786,3	42,496
786,6	42,021
786,8	42,601
787	42,104
787,2	42,658
787,4	43,31
787,7	43,612
787,9	43,012
788,1	42,809
788,3	43,578
788,6	43,163
788,8	39,912
789	39,12
789,2	38,321
789,5	37,68
789,7	36,439
789,9	34,549
790,1	33,305
790,3	32,532
790,6	33,256
790,8	33,15
791	33,082
791,2	34,832
791,5	37,223
791,7	37,883
791,9	37,774
792,1	37,091
792,3	35,941
792,6	35,27
792,8	32,826
793	34,406
793,2	34,172
793,5	34,432
793,7	34,425
793,9	33,972
794,1	32,464
794,3	32,509
794,6	33,169
794,8	32,418
795	32,2
795,2	31,958
795,5	32,49
795,7	33,788
795,9	35,043
796,1	33,067
796,3	32,871
796,6	35,055
796,8	35,202
797	36,744
797,2	38,283
797,5	38,868
797,7	39,739
797,9	38,585
798,1	38,11
798,3	45,128
798,6	45,366
798,8	47,908
799	48,311
799,2	48,907
799,5	49,786
799,7	50,899
799,9	48,749
800,1	47,583
800,3	46,128
800,6	45,751
800,8	45,943
801	47,116
801,2	46,716
801,5	46,339
801,7	45,219
801,9	44,642
802,1	45,626
802,3	45,928
802,6	45,498
802,8	44,019
803	45,502
803,2	46,256
803,4	44,427
803,7	44,857
803,9	43,861
804,1	43,722
804,3	42,994
804,6	42,639
804,8	43,605
805	41,115
805,2	31,095
805,4	29,413
805,7	26,592
805,9	25,713
806,1	25,984
806,3	25,505
806,5	25,189
806,8	23,827
807	24,125
807,2	24,619
807,4	24,578
807,6	22,349
807,9	20,844
808,1	20,633
808,3	20,501
808,5	23,265
808,8	24,449
809	22,715
809,2	23,812
809,4	24,265
809,6	23,808
809,9	22,039
810,1	21,576
810,3	22,858
810,5	22,285
810,7	20,957
811	18,604
811,2	16,986
811,4	16,13
811,6	15,304
811,8	16,035
812,1	16,65
812,3	17,457
812,5	16,959
812,7	16,824
812,9	16,541
813,2	17,544
813,4	16,133
813,6	17,302
813,8	16,937
814	15,911
814,3	15,217
814,5	17,204
814,7	16,246
814,9	14,123
815,2	13,629
815,4	11,551
815,6	10,129
815,8	9,443
816	6,656
816,3	6,818
816,5	5,932
816,7	6,999
816,9	7,338
817,1	7,108
817,4	5,419
817,6	5,86
817,8	5,924
818	6,022
818,2	5,615
818,5	4,57
818,7	4,272
818,9	2,492
819,1	3,721
819,3	4,513
819,6	5,517
819,8	6,667
820	4,857
820,2	4,808
820,4	4,076
820,7	3,672
820,9	5,166
821,1	5,543
821,3	4,031
821,5	5,977
821,8	8,259
822	7,625
822,2	8,79
822,4	8,153
822,6	8,477
822,9	9,262
823,1	7,372
823,3	8,677
823,5	8,153
823,7	8,59
823,9	6,867
824,2	6,35
824,4	5,679
824,6	7,493
824,8	6,437
825	6,848
825,3	6,708
825,5	6,856
825,7	8,526
825,9	6,543
826,1	5,064
826,4	4,159
826,6	1,87
826,8	0,682
827	1,349
827,2	1,628
827,5	2,42
827,7	2,409
827,9	2,394
828,1	3,556
828,3	2,564
828,6	2,002
828,8	2,405
829	0,98
829,2	1,485
829,4	3,258
829,6	2,914
829,9	4,163
830,1	3,657
830,3	3,111
830,5	1,798
830,7	2,028
831	3,54
831,2	3,952
831,4	2,047
831,6	2,994
831,8	2,688
832,1	4,185
832,3	4,325
832,5	4,204
832,7	4,061
832,9	4,891
833,1	4,913
833,4	5,272
833,6	6,897
833,8	8,794
834	8,843
834,2	8,666
834,5	7,297
834,7	5,694
834,9	4,366
835,1	4,035
835,3	3,442
835,5	2,896
835,8	2,979
836	3,02
836,2	1,444
836,4	2,183
836,6	1,014
836,9	0,652
837,1	0,614
837,3	1,266
837,5	0,576
837,7	0,338
837,9	0,142
838,2	2,236
838,4	1,545
838,6	2,929
838,8	2,319
839	1,828
839,3	2,341
839,5	3,48
839,7	3,039
839,9	2,424
840,1	2,469
840,3	4,268
840,6	1,711
840,8	2,941
841	3,05
841,2	3,993
841,4	5,045
841,7	5,973
841,9	5,415
842,1	5,313
842,3	5,92
842,5	6,12
842,7	7,55
843	7,451
843,2	6,018
843,4	9,122
843,6	9,533
843,8	10,54
844	10,25
844,3	10,567
844,5	9,711
844,7	8,99
844,9	8,062
845,1	8,198
845,4	6,957
845,6	7,832
845,8	9,258
846	7,772
846,2	6,644
846,4	7,991
846,7	8,134
846,9	8,526
847,1	7,12
847,3	8,187
847,5	7,003
847,7	6,011
848	4,385
848,2	4,121
848,4	3,65
848,6	4,423
848,8	4,679
849	3,967
849,3	3,672
849,5	2,586
849,7	1,251
849,9	0,071
850,1	-3,135
850,3	-1,219
850,6	-2,132
850,8	-2,897
851	-4,018
851,2	-3,78
851,4	-3,41
851,6	-4,568
851,9	-4,794
852,1	-3,727
852,3	-6,533
852,5	-6,699
852,7	-6,073
852,9	-4,036
853,2	-3,78
853,4	-3,999
853,6	-4,587
853,8	-5,847
854	-7,178
854,2	-6,16
854,5	-6,103
854,7	-5,255
854,9	-4,825
855,1	-4,779
855,3	-4,323
855,5	-3,376
855,8	-3,041
856	-4,342
856,2	-5,613
856,4	-3,787
856,6	-2,486
856,8	-1,396
857,1	-1,249
857,3	-1,415
857,5	-0,982
857,7	1,998
857,9	2,828
858,1	4,593
858,4	3,612
858,6	3,755
858,8	2,047
859	3,827
859,2	1,885
859,4	2,564
859,7	1,093
859,9	-0,065
860,1	-0,239
860,3	-0,25
860,5	-0,457
860,7	-0,668
860,9	-2,253
861,2	-1,313
861,4	-1,434
861,6	-0,838
861,8	0,569
862	0,459
862,2	-0,197
862,5	-0,895
862,7	-0,073
862,9	-0,122
863,1	0,12
863,3	0,15
863,5	0,078
863,8	-1,83
864	-0,227
864,2	0,048
864,4	-0,872
864,6	-2,449
864,8	-3,972
865	-2,83
865,3	-1,66
865,5	-1,766
865,7	-1,129
865,9	-0,178
866,1	-1,83
866,3	-2,17
866,6	-2,207
866,8	-2,234
867	-2,92
867,2	-2,649
867,4	-2,041
867,6	-1,781
867,8	-2,562
868,1	-2,826
868,3	-3,52
868,5	-4,576
868,7	-5,56
868,9	-5,862
869,1	-4,549
869,3	-4,297
869,6	-4,783
869,8	-5,089
870	-5,775
870,2	-6,62
870,4	-7,555
870,6	-8,845
870,9	-9,29
871,1	-11,353
871,3	-11,134
871,5	-10,897
871,7	-8,943
871,9	-10,708
872,1	-10,806
872,4	-12,236
872,6	-13,484
872,8	-12,583
873	-13,152
873,2	-12,801
873,4	-11,198
873,6	-10,301
873,9	-10,437
874,1	-10,316
874,3	-11,406
874,5	-11,9
874,7	-12,507
874,9	-12,775
875,1	-13,028
875,4	-12,816
875,6	-13,488
875,8	-13,401
876	-11,794
876,2	-10,433
876,4	-12,217
876,6	-11,01
876,9	-9,384
877,1	-8,325
877,3	-8,924
877,5	-10,52
877,7	-8,136
877,9	-7,238
878,1	-9,72
878,4	-11,527
878,6	-10,414
878,8	-9,022
879	-8,724
879,2	-6,141
879,4	-6,446
879,6	-4,538
879,9	-5,496
880,1	-6,48
880,3	-7,623
880,5	-6,107
880,7	-5,473
880,9	-4,089
881,1	-3,539
881,3	-2,083
881,6	-3,312
881,8	-5,062
882	-4,87
882,2	-3,165
882,4	-3,81
882,6	-5,654
882,8	-6,495
883,1	-5,775
883,3	-6,737
883,5	-7,887
883,7	-6,416
883,9	-6,801
884,1	-5,247
884,3	-7,461
884,6	-8,49
884,8	-5,526
885	-5,756
885,2	-6,676
885,4	-7,02
885,6	-6,273
885,8	-6,733
886	-6,092
886,3	-7,853
886,5	-7,717
886,7	-7,729
886,9	-6,197
887,1	-7,378
887,3	-8,283
887,5	-8,294
887,8	-7,457
888	-9,403
888,2	-8,038
888,4	-7,212
888,6	-7,133
888,8	-8,502
889	-7,985
889,2	-8,253
889,5	-9,354
889,7	-9,068
889,9	-6,831
890,1	-7,574
890,3	-9,29
890,5	-7,88
890,7	-7,974
890,9	-8,023
891,2	-7,864
891,4	-9,128
891,6	-8,958
891,8	-7,8
892	-9,682
892,2	-10,961
892,4	-13,129
892,6	-14,05
892,9	-14,521
893,1	-13,129
893,3	-12,598
893,5	-12,926
893,7	-13,816
893,9	-13,371
894,1	-13,548
894,3	-13,944
894,6	-13,258
894,8	-13,065
895	-10,821
895,2	-10,81
895,4	-10,561
895,6	-12,386
895,8	-12,507
896	-10,584
896,3	-10,976
896,5	-13,386
896,7	-11,983
896,9	-11,915
897,1	-12,669
897,3	-13,088
897,5	-12,009
897,7	-11,625
898	-9,599
898,2	-10,007
898,4	-11,919
898,6	-10,738
898,8	-10,157
899	-8,871
899,2	-6,842
899,4	-4,602
899,6	-5,93
899,9	-6,861
900,1	-5,96
900,3	-4,704
900,5	-3,848
900,7	-3,659
900,9	-6,133
901,1	-5,043
901,3	-6,537
901,6	-8,068
901,8	-7,823
902	-8,86
902,2	-8,498
902,4	-8,845
902,6	-9,946
902,8	-9,916
903	-9,988
903,2	-11,534
903,5	-12,469
903,7	-12,907
903,9	-13,107
904,1	-12,956
904,3	-12,726
904,5	-14,193
904,7	-13,465
904,9	-12,986
905,1	-12,36
905,4	-11,421
905,6	-11,213
905,8	-12,986
906	-13,657
906,2	-13,68
906,4	-13,469
906,6	-14,295
906,8	-12,718
907	-13,733
907,3	-14,265
907,5	-14,159
907,7	-15,498
907,9	-13,461
908,1	-13,831
908,3	-14,928
908,5	-13,62
908,7	-13,288
908,9	-13,97
909,2	-14,498
909,4	-13,499
909,6	-12,963
909,8	-14,182
910	-13,654
910,2	-12,862
910,4	-13,178
910,6	-13,491
910,8	-15,026
911,1	-12,96
911,3	-12,036
911,5	-11,809
911,7	-13,095
911,9	-12,929
912,1	-12,251
912,3	-12,779
912,5	-11,93
912,7	-11,938
912,9	-11,259
913,2	-10,878
913,4	-13,307
913,6	-11,345
913,8	-11,379
914	-8,841
914,2	-8,347
914,4	-8,562
914,6	-9,554
914,8	-8,211
915,1	-7,106
915,3	-7,065
915,5	-5,59
915,7	-5,115
915,9	-5,025
916,1	-5,994
916,3	-5,273
916,5	-4,81
916,7	-3,942
916,9	-1,653
917,2	-1,943
917,4	0,312
917,6	-2,486
917,8	-3,376
918	-4,689
918,2	-3,459
918,4	-5,089
918,6	-5,417
918,8	-5,783
919	-7,103
919,2	-5,602
919,5	-4,776
919,7	-6,797
919,9	-6,013
920,1	-7,736
920,3	-8,321
920,5	-9,124
920,7	-9,305
920,9	-9,927
921,1	-8,204
921,3	-10,025
921,6	-12,017
921,8	-11,934
922	-13,065
922,2	-14,276
922,4	-14,747
922,6	-14,348
922,8	-12,688
923	-13,005
923,2	-14,653
923,4	-17,199
923,6	-16,807
923,9	-18,01
924,1	-17,851
924,3	-18,953
924,5	-17,082
924,7	-18,349
924,9	-17,372
925,1	-17,444
925,3	-15,856
925,5	-15,426
925,7	-17,485
925,9	-18,59
926,2	-17,493
926,4	-18,138
926,6	-17,493
926,8	-17,512
927	-18,074
927,2	-17,071
927,4	-17,678
927,6	-19,017
927,8	-17,15
928	-16,49
928,2	-16,837
928,5	-15,916
928,7	-15,355
928,9	-14,6
929,1	-14,008
929,3	-13,691
929,5	-12,858
929,7	-13,337
929,9	-12,262
930,1	-12,929
930,3	-13,084
930,5	-11,342
930,8	-9,233
931	-9,282
931,2	-8,83
931,4	-9,237
931,6	-8,77
931,8	-9,113
932	-8,947
932,2	-9,52
932,4	-11,085
932,6	-11,44
932,8	-12,281
933	-14,336
933,3	-14,14
933,5	-14,125
933,7	-14,913
933,9	-14,796
934,1	-13,563
934,3	-13,405
934,5	-13,476
934,7	-14,374
934,9	-14,593
935,1	-13,08
935,3	-14,068
935,5	-15,63
935,7	-16,837
936	-17,067
936,2	-15,72
936,4	-16,222
936,6	-14,811
936,8	-15,226
937	-16,38
937,2	-18,1
937,4	-17,561
937,6	-17,448
937,8	-17,817
938	-20,906
938,2	-21,427
938,4	-20,88
938,7	-18,726
938,9	-18,111
939,1	-18,194
939,3	-16,252
939,5	-13,869
939,7	-14,547
939,9	-14,736
940,1	-14,291
940,3	-13,895
940,5	-15,008
940,7	-15,554
940,9	-15,023
941,1	-13,865
941,4	-14,268
941,6	-14,747
941,8	-14,596
942	-12,797
942,2	-12,715
942,4	-12,782
942,6	-10,995
942,8	-10,361
943	-11,602
943,2	-10,486
943,4	-11,176
943,6	-10,878
943,8	-11,828
944	-12,624
944,3	-12,066
944,5	-11,097
944,7	-8,954
944,9	-9,818
945,1	-9,716
945,3	-8,287
945,5	-6,258
945,7	-6,205
945,9	-8,219
946,1	-6,771
946,3	-7,544
946,5	-8,336
946,7	-8,536
946,9	-7,352
947,1	-8,502
947,4	-9,882
947,6	-10,889
947,8	-10,678
948	-11,353
948,2	-10,976
948,4	-12,288
948,6	-11,692
948,8	-11,576
949	-13,035
949,2	-13,054
949,4	-13,412
949,6	-14,483
949,8	-13,476
950	-14,008
950,2	-11,281
950,5	-10,81
950,7	-11,579
950,9	-11,711
951,1	-15,49
951,3	-13,82
951,5	-14,932
951,7	-17,395
951,9	-19,005
952,1	-19,952
952,3	-18,515
952,5	-18,964
952,7	-16,991
952,9	-16,614
953,1	-17,674
953,3	-18,5
953,5	-17,629
953,8	-16,312
954	-14,947
954,2	-16,158
954,4	-16,52
954,6	-17,961
954,8	-17,731
955	-17,821
955,2	-16,859
955,4	-17,757
955,6	-18,839
955,8	-17,063
956	-17,003
956,2	-16,629
956,4	-15,777
956,6	-18,394
956,8	-17,685
957	-17,406
957,2	-15,837
957,5	-14,363
957,7	-16,18
957,9	-15,977
958,1	-15,339
958,3	-15,815
958,5	-16,716
958,7	-17,682
958,9	-17,896
959,1	-18,802
959,3	-18,213
959,5	-18,055
959,7	-17,915
959,9	-18,764
960,1	-19,778
960,3	-19,613
960,5	-17,093
960,7	-15,871
960,9	-13,688
961,1	-14,133
961,4	-14,4
961,6	-17,319
961,8	-17,651
962	-18,047
962,2	-17,451
962,4	-18,937
962,6	-18,937
962,8	-20,129
963	-20,767
963,2	-22,234
963,4	-22,124
963,6	-24,278
963,8	-24,836
964	-25,956
964,2	-27,31
964,4	-26,228
964,6	-25,009
964,8	-24,432
965	-24,806
965,2	-25,413
965,5	-25,356
965,7	-24,753
965,9	-24,229
966,1	-25,077
966,3	-23,395
966,5	-20,868
966,7	-23,41
966,9	-23,788
967,1	-24,885
967,3	-25,949
967,5	-23,991
967,7	-24,93
967,9	-23,75
968,1	-21,653
968,3	-18,172
968,5	-19,16
968,7	-16,935
968,9	-15,928
969,1	-14,766
969,3	-12,843
969,5	-12,247
969,7	-11,379
969,9	-9,215
970,2	-8,864
970,4	-7,559
970,6	-7,544
970,8	-7,906
971	-7,261
971,2	-6,277
971,4	-5,899
971,6	-4,425
971,8	-4,402
972	-5,726
972,2	-3,478
972,4	-3,61
972,6	-5,477
972,8	-6,382
973	-4,991
973,2	-4,998
973,4	-5,632
973,6	-5,519
973,8	-6,175
974	-5,839
974,2	-5,794
974,4	-8,555
974,6	-11,01
974,8	-10,482
975	-11,236
975,2	-12,975
975,5	-13,876
975,7	-13,02
975,9	-11,708
976,1	-12,145
976,3	-14,095
976,5	-12,877
976,7	-13,635
976,9	-12,258
977,1	-13,608
977,3	-13,721
977,5	-15,6
977,7	-15,287
977,9	-15,083
978,1	-15,087
978,3	-14,544
978,5	-16,78
978,7	-16,026
978,9	-14,887
979,1	-15,558
979,3	-14,653
979,5	-15,702
979,7	-15,573
979,9	-15,886
980,1	-17,489
980,3	-17,169
980,5	-16,788
980,7	-14,442
980,9	-12,545
981,1	-13,861
981,3	-13,054
981,5	-12,929
981,7	-13,71
981,9	-15,185
982,2	-15,422
982,4	-15,52
982,6	-12,296
982,8	-13,589
983	-13,94
983,2	-13,688
983,4	-12,616
983,6	-13,216
983,8	-11,217
984	-11,511
984,2	-11,021
984,4	-11,493
984,6	-12,982
984,8	-13,024
985	-11,417
985,2	-10,463
985,4	-11,564
985,6	-13,495
985,8	-12,024
986	-9,113
986,2	-7,491
986,4	-7,947
986,6	-5,783
986,8	-6,028
987	-5,967
987,2	-7,401
987,4	-7,947
987,6	-7,932
987,8	-8,064
988	-6,458
988,2	-7,231
988,4	-8,498
988,6	-8,577
988,8	-11,568
989	-10,652
989,2	-10,723
989,4	-10,644
989,6	-10,833
989,8	-11,213
990	-10,474
990,2	-10,403
990,4	-12,303
990,6	-11,202
990,8	-9,539
991	-8,709
991,3	-10,01
991,5	-10,912
991,7	-10,814
991,9	-10,535
992,1	-12,096
992,3	-13,088
992,5	-14,05
992,7	-12,688
992,9	-14,434
993,1	-14,529
993,3	-15,57
993,5	-16,569
993,7	-15,091
993,9	-14,759
994,1	-15,607
994,3	-15,562
994,5	-15,113
994,7	-14,151
994,9	-13,808
995,1	-13,559
995,3	-12,828
995,5	-12,352
995,7	-12,884
995,9	-11,413
996,1	-11,972
996,3	-14,827
996,5	-14,8
996,7	-14,864
996,9	-15,381
997,1	-17,263
997,3	-19,013
997,5	-19,292
997,7	-19,854
997,9	-19,401
998,1	-16,524
998,3	-15,717
998,5	-16,486
998,7	-16,38
998,9	-14,959
999,1	-14,642
999,3	-14,117
999,5	-14,612
999,7	-15,355
999,9	-16,603
1000,1	-18,319
1000,3	-17,165
1000,5	-17,693
1000,7	-17,482
1000,9	-17,387
1001,1	-17,225
1001,3	-15,573
1001,5	-17,602
1001,7	-17,946
1001,9	-18,515
1002,1	-19,654
1002,3	-18,643
1002,5	-18,308
1002,7	-20,016
1002,9	-19,933
1003,1	-19,929
1003,3	-19,111
1003,5	-17,074
1003,7	-17,742
1003,9	-16,037
1004,1	-15,219
1004,3	-16,411
1004,5	-15,747
1004,7	-15,962
1004,9	-18,093
1005,1	-19,167
1005,3	-18,817
1005,5	-19,303
1005,7	-17,682
1005,9	-17,625
1006,1	-15,837
1006,3	-15,185
1006,5	-16,15
1006,7	-15,385
1006,9	-15,732
1007,1	-16,369
1007,3	-17,636
1007,5	-18,157
1007,7	-17,387
1007,9	-18,33
1008,1	-18,044
1008,3	-18,598
1008,5	-18,738
1008,7	-15,566
1008,9	-14,366
1009,1	-14,08
1009,3	-15,796
1009,5	-15,483
1009,7	-16,69
1009,9	-15,596
1010,1	-17,599
1010,3	-16,226
1010,5	-17,542
1010,7	-18,715
1010,9	-19,013
1011,1	-17,795
1011,3	-17,678
1011,5	-18,383
1011,7	-19,269
1011,9	-20,431
1012,1	-18,277
1012,3	-18,511
1012,5	-17,485
1012,7	-17,572
1012,9	-17,825
1013,1	-18,575
1013,3	-17,953
1013,5	-16,886
1013,7	-17,301
1013,9	-18,179
1014,1	-17,395
1014,3	-17,376
1014,5	-17,565
1014,7	-17,18
1014,9	-19,794
1015,1	-18,164
1015,3	-18,613
1015,5	-18,364
1015,7	-19,02
1015,9	-18,289
1016,1	-20,099
1016,3	-17,546
1016,5	-20,427
1016,7	-19,186
1016,9	-19,382
1017,1	-20,371
1017,3	-20,525
1017,5	-20,009
1017,7	-20,589
1017,9	-20,393
1018,1	-19,462
1018,3	-20,963
1018,5	-21,894
1018,7	-22,396
1018,9	-20,921
1019,1	-22,317
1019,2	-22,807
1019,4	-23,275
1019,6	-23,746
1019,8	-24,195
1020	-23,335
1020,2	-22,879
1020,4	-20,721
1020,6	-21,034
1020,8	-22,203
1021	-21,279
1021,2	-22,852
1021,4	-21,675
1021,6	-19,428
1021,8	-18,919
1022	-19,492
1022,2	-17,798
1022,4	-17,964
1022,6	-18,213
1022,8	-18,074
1023	-18,474
1023,2	-16,976
1023,4	-16,882
1023,6	-17,972
1023,8	-14,506
1024	-14,615
1024,2	-17,116
1024,4	-16,301
1024,6	-16,309
1024,8	-17,64
1025	-17,825
1025,2	-17,957
1025,4	-15,162
1025,6	-15,479
1025,8	-15,811
1026	-15,023
1026,2	-15,332
1026,4	-15,151
1026,6	-16,595
1026,8	-14,955
1027	-15,37
1027,2	-14,774
1027,4	-14,57
1027,6	-14,121
1027,8	-15,464
1028	-15,694
1028,1	-14,427
1028,3	-15,264
1028,5	-16,592
1028,7	-16,641
1028,9	-18,417
1029,1	-18,568
1029,3	-19,22
1029,5	-19,277
1029,7	-19,352
1029,9	-21,574
1030,1	-18,847
1030,3	-18,115
1030,5	-17,225
1030,7	-16,35
1030,9	-14,102
1031,1	-14,717
1031,3	-14,265
1031,5	-14,819
1031,7	-14,74
1031,9	-14,2
1032,1	-14,766
1032,3	-15,615
1032,5	-15,981
1032,7	-17,964
1032,9	-18,851
1033,1	-18,372
1033,3	-18,006
1033,5	-17,561
1033,7	-19,175
1033,9	-19,394
1034,1	-19,19
1034,3	-17,9
1034,4	-18,24
1034,6	-18,662
1034,8	-17,376
1035	-16,301
1035,2	-15,916
1035,4	-14,94
1035,6	-15,294
1035,8	-14,566
1036	-15,554
1036,2	-17,919
1036,4	-17,478
1036,6	-18,489
1036,8	-20,125
1037	-21,672
1037,2	-22,32
1037,4	-23,18
1037,6	-24,119
1037,8	-22,954
1038	-23,667
1038,2	-24,048
1038,4	-23,761
1038,6	-22,811
1038,8	-20,759
1039	-19,514
1039,2	-20,107
1039,4	-21,936
1039,5	-21,649
1039,7	-21,129
1039,9	-20,227
1040,1	-20,91
1040,3	-22,4
1040,5	-20,306
1040,7	-20,616
1040,9	-20,978
1041,1	-22,905
1041,3	-23,339
1041,5	-25,496
1041,7	-24,734
1041,9	-24,836
1042,1	-24,504
1042,3	-23,904
1042,5	-23,619
1042,7	-23,757
1042,9	-23,229
1043,1	-23,033
1043,3	-22,45
1043,5	-21,02
1043,7	-21,02
1043,8	-22,129
1044	-21,318
1044,2	-20,676
1044,4	-19,624
1044,6	-20,714
1044,8	-21,99
1045	-23,945
1045,2	-23,062
