Data from FLMT021711__8__16-30-13-063.txt Node

Date: Tue Nov 05 16:30:13 CET 2024
User: Etudiants TP
Spectrometer: FLMT02171
Trigger mode: 0
Integration Time (sec): 1,000000E-1
Scans to average: 5
Electric dark correction enabled: true
Nonlinearity correction enabled: false
Boxcar width: 15
XAxis mode: Wavelengths
Number of Pixels in Spectrum: 3648
>>>>>Begin Spectral Data<<<<<
194,658	-44,42
194,923	-42,38
195,188	-36,32
195,453	-33,96
195,717	-30,95
195,982	-30,81
196,247	-30,71
196,512	-31,63
196,777	-28,95
197,042	-27,66
197,307	-27,66
197,572	-24,65
197,837	-25,01
198,101	-22,37
198,366	-19,81
198,631	-17,34
198,896	-13,18
199,161	-7,48
199,425	-1,56
199,69	6,21
199,955	6,52
200,22	4,4
200,484	3,97
200,749	5,73
201,014	5,94
201,278	6,58
201,543	8,09
201,807	8,42
202,072	11,79
202,337	12,57
202,601	12,57
202,866	11,83
203,13	12,84
203,395	10,86
203,659	10,04
203,924	9,38
204,189	10,39
204,453	12,57
204,717	13,45
204,982	13,01
205,246	14,12
205,511	15,65
205,775	13,79
206,04	18,37
206,304	17,11
206,568	17,72
206,833	16,93
207,097	17,24
207,361	18,03
207,626	20,47
207,89	20,76
208,154	20,84
208,419	21,83
208,683	21,6
208,947	22,65
209,211	22,23
209,476	22,7
209,74	22,97
210,004	22,83
210,268	21,57
210,532	23,15
210,796	24,62
211,061	24,54
211,325	24,6
211,589	23,61
211,853	24,43
212,117	24,16
212,381	24,52
212,645	24,11
212,909	24,76
213,173	23,34
213,437	24,52
213,701	24,93
213,965	26,67
214,229	23,49
214,493	23,45
214,757	23,35
215,021	22,18
215,285	25,83
215,549	26
215,813	23,48
216,077	22,31
216,34	22,83
216,604	21,25
216,868	20,79
217,132	19,96
217,396	19,27
217,659	18,2
217,923	14,29
218,187	14,08
218,451	15,23
218,714	12,93
218,978	13,13
219,242	15,91
219,505	15,92
219,769	16,88
220,033	16,85
220,296	18,61
220,56	18,7
220,824	17,52
221,087	18,23
221,351	18,38
221,614	17,19
221,878	17,46
222,142	16,39
222,405	16,28
222,669	18,93
222,932	15,39
223,196	14,74
223,459	12,23
223,722	14,04
223,986	12,28
224,249	11,75
224,513	12,52
224,776	14,1
225,04	14,51
225,303	15,93
225,566	16,32
225,83	18,77
226,093	21,14
226,356	19,54
226,62	17,51
226,883	19,92
227,146	19,45
227,409	17,32
227,673	15,59
227,936	13,99
228,199	13,42
228,462	11,18
228,725	11,11
228,989	11,02
229,252	11,02
229,515	14,52
229,778	12,83
230,041	13,79
230,304	12,16
230,567	12,62
230,83	10,55
231,093	12,7
231,356	12,86
231,619	17,35
231,882	15,89
232,145	18,64
232,408	18,6
232,671	18,04
232,934	17,06
233,197	16,05
233,46	16,02
233,723	17,51
233,986	14,93
234,249	13,69
234,512	15,34
234,775	17,81
235,037	16,39
235,3	16,33
235,563	16,43
235,826	19,09
236,089	21,23
236,351	21,67
236,614	24,14
236,877	25,09
237,14	26,53
237,402	26,35
237,665	22,52
237,928	23,03
238,19	20,61
238,453	22,72
238,716	22,35
238,978	22,81
239,241	22,52
239,503	24,7
239,766	20,83
240,029	19,64
240,291	20,79
240,554	20,81
240,816	21,16
241,079	20,97
241,341	20,32
241,604	18,41
241,866	15,51
242,129	17,05
242,391	20,12
242,653	19,32
242,916	19,55
243,178	19,62
243,441	20,22
243,703	19,94
243,965	17,83
244,228	18,49
244,49	18,26
244,752	18,8
245,015	18,69
245,277	20,37
245,539	19,5
245,801	20,71
246,064	21,02
246,326	19,53
246,588	19,98
246,85	20,98
247,112	20,63
247,374	20,65
247,637	21,75
247,899	21,42
248,161	21,83
248,423	19,19
248,685	19,95
248,947	19,08
249,209	19,19
249,471	20,93
249,733	21,5
249,995	20,83
250,257	19,78
250,519	18
250,781	21
251,043	19,03
251,305	19,55
251,567	20,41
251,829	20,71
252,091	19,75
252,353	15,53
252,615	14,73
252,876	12,93
253,138	12,03
253,4	8,76
253,662	9,96
253,924	11,16
254,185	11
254,447	11
254,709	10,45
254,971	10,95
255,232	12,01
255,494	11,72
255,756	10,26
256,017	11,07
256,279	10,6
256,541	10,02
256,802	9,71
257,064	9,43
257,326	9,37
257,587	9,6
257,849	10,29
258,11	12,65
258,372	15,16
258,633	15,19
258,895	14,68
259,156	13,62
259,418	14,07
259,679	11,55
259,941	10,09
260,202	12,67
260,464	16,12
260,725	17
260,987	16,62
261,248	16,17
261,509	16,44
261,771	15,67
262,032	16,51
262,293	16,7
262,555	17,63
262,816	16,32
263,077	14,95
263,338	13,74
263,6	13,62
263,861	13,56
264,122	12,45
264,383	13,86
264,645	15,33
264,906	13,76
265,167	14,84
265,428	13,38
265,689	14,48
265,95	13,05
266,211	14,48
266,473	12,24
266,734	10,38
266,995	7,81
267,256	9,72
267,517	10,61
267,778	11,84
268,039	13,39
268,3	11,92
268,561	9,68
268,822	11,53
269,083	9,46
269,344	8,17
269,604	8,39
269,865	8,4
270,126	4,58
270,387	5,81
270,648	6,99
270,909	8,26
271,17	7,73
271,43	5,86
271,691	3,37
271,952	1,56
272,213	4,28
272,473	2,4
272,734	3,96
272,995	6,12
273,256	7,03
273,516	10,07
273,777	7,72
274,038	8,39
274,298	6,46
274,559	6,81
274,82	9,92
275,08	11,73
275,341	12,04
275,601	11,29
275,862	9,83
276,122	8,78
276,383	9,17
276,643	10,42
276,904	9,23
277,164	13,65
277,425	14,17
277,685	17,44
277,946	17,77
278,206	20,19
278,467	20,64
278,727	20,04
278,987	19,27
279,248	19,51
279,508	20,63
279,768	23,15
280,029	25,13
280,289	21,5
280,549	21,79
280,81	20,68
281,07	19,1
281,33	19,9
281,59	18,47
281,851	20,62
282,111	21,34
282,371	20,14
282,631	21,07
282,891	19,92
283,151	17,51
283,412	15,54
283,672	13,85
283,932	14,78
284,192	16,08
284,452	14,04
284,712	12,78
284,972	12,7
285,232	10,28
285,492	11,83
285,752	9,38
286,012	14
286,272	15,03
286,532	12,64
286,792	13,38
287,052	13,48
287,312	13,6
287,571	12,81
287,831	13,39
288,091	10,86
288,351	11,23
288,611	14,17
288,871	12,66
289,13	13,7
289,39	11,2
289,65	11,73
289,91	9,01
290,17	10,94
290,429	13,23
290,689	10,38
290,949	7,68
291,208	9,39
291,468	13,21
291,728	14,77
291,987	15,83
292,247	14,26
292,506	16,51
292,766	19,22
293,026	16,89
293,285	17,45
293,545	19,96
293,804	21,05
294,064	17,9
294,323	15,51
294,583	16,6
294,842	17,1
295,102	17,77
295,361	17,49
295,621	18,46
295,88	18,48
296,139	17,65
296,399	18,8
296,658	14,64
296,917	16,33
297,177	13,85
297,436	14,1
297,695	12,87
297,955	14,77
298,214	12,56
298,473	13,87
298,732	16,58
298,992	18,93
299,251	19,38
299,51	16,98
299,769	17,74
300,028	19,22
300,287	19,95
300,547	19,13
300,806	17,91
301,065	21,76
301,324	21,3
301,583	18,61
301,842	14,82
302,101	13,01
302,36	13,55
302,619	13,79
302,878	13,84
303,137	11,77
303,396	12,72
303,655	13,59
303,914	11,27
304,173	12,26
304,432	11,68
304,691	14,2
304,95	11,51
305,208	14,64
305,467	14,93
305,726	14,98
305,985	15,43
306,244	16,46
306,503	15,37
306,761	15,03
307,02	13,64
307,279	13,49
307,537	13,5
307,796	10,89
308,055	7,76
308,314	9,45
308,572	8,97
308,831	8,52
309,09	8,02
309,348	9,21
309,607	8,13
309,865	11,24
310,124	11,96
310,382	13,93
310,641	14,48
310,9	13,49
311,158	13,94
311,417	13,55
311,675	13,04
311,933	14,24
312,192	14,87
312,45	14,8
312,709	14,62
312,967	15,14
313,226	15,4
313,484	15,81
313,742	14,19
314,001	12,4
314,259	11,1
314,517	12,69
314,776	13,38
315,034	15,26
315,292	13,25
315,55	10,28
315,809	9,18
316,067	8,45
316,325	6,01
316,583	7,84
316,841	8,77
317,1	6,91
317,358	5,73
317,616	4,37
317,874	3,68
318,132	3,62
318,39	2,24
318,648	0,07
318,906	-0,53
319,164	-0,15
319,422	-0,38
319,68	-0,89
319,938	-0,7
320,196	-0,33
320,454	0,91
320,712	0,59
320,97	-0,09
321,228	-1,76
321,486	-1,47
321,744	1,4
322,002	3,93
322,26	3,46
322,517	2,11
322,775	0,66
323,033	-0,89
323,291	0,99
323,549	3,37
323,806	5,55
324,064	7,22
324,322	9,31
324,58	8,14
324,837	8
325,095	7,49
325,353	9,64
325,61	11,64
325,868	11,01
326,126	10,92
326,383	9,71
326,641	10,33
326,898	11,18
327,156	12,33
327,413	12,47
327,671	13,16
327,928	14,91
328,186	15,86
328,443	13,43
328,701	16,42
328,958	17,17
329,216	16,23
329,473	14,99
329,731	15,26
329,988	14,47
330,245	16,6
330,503	17,84
330,76	16,44
331,017	17,89
331,275	15,46
331,532	15,54
331,789	13,61
332,047	12,1
332,304	10,14
332,561	9,34
332,818	8,65
333,076	9,65
333,333	9,45
333,59	10,14
333,847	11,29
334,104	11,47
334,361	11,98
334,618	11,03
334,876	10,6
335,133	9,19
335,39	7,42
335,647	8,09
335,904	6,04
336,161	4,17
336,418	4,93
336,675	2,08
336,932	3,75
337,189	5
337,446	4,89
337,703	3
337,96	0,04
338,216	-0,34
338,473	-1,77
338,73	0,15
338,987	1,25
339,244	4,39
339,501	3,61
339,757	4,86
340,014	6,24
340,271	7,3
340,528	8,63
340,785	11,42
341,041	10,9
341,298	8,76
341,555	8,74
341,811	8,35
342,068	6,89
342,325	6,97
342,581	8,45
342,838	9,05
343,094	9,14
343,351	10,55
343,608	8,5
343,864	10,05
344,121	10,34
344,377	11,72
344,634	10,82
344,89	10,26
345,147	9,12
345,403	9,36
345,66	8,75
345,916	11,25
346,172	10,43
346,429	8,28
346,685	6,88
346,942	5,38
347,198	2,57
347,454	2,91
347,711	2,8
347,967	1,25
348,223	1,03
348,48	0,99
348,736	2,54
348,992	2,39
349,248	3,7
349,504	3,42
349,761	2,9
350,017	3,79
350,273	3,74
350,529	3,61
350,785	3,08
351,041	3,7
351,297	3,37
351,554	2,58
351,81	1,12
352,066	0,87
352,322	-0,97
352,578	-1,68
352,834	-2,48
353,09	-1,48
353,346	-1,7
353,602	-2
353,858	-3,32
354,114	-4,32
354,369	-1,76
354,625	-0,18
354,881	-1,7
355,137	1,11
355,393	0,26
355,649	1,72
355,905	1,79
356,16	1,44
356,416	2,95
356,672	-2,07
356,928	-0,96
357,183	-1,45
357,439	-1,54
357,695	-1,96
357,951	-0,45
358,206	-1,06
358,462	-2,13
358,718	-4,01
358,973	-3,86
359,229	-3,69
359,484	-3,63
359,74	-1,85
359,996	-1,3
360,251	1,56
360,507	3,15
360,762	2,94
361,018	4,52
361,273	4,3
361,529	6,45
361,784	6,97
362,04	8,05
362,295	6,37
362,55	6,38
362,806	7,87
363,061	6,91
363,316	8,47
363,572	7,79
363,827	9,37
364,082	7,82
364,338	6,06
364,593	7,19
364,848	7,36
365,104	6,61
365,359	8,23
365,614	7,68
365,869	6,96
366,124	8,35
366,38	8,59
366,635	10,22
366,89	10,77
367,145	10,52
367,4	14,07
367,655	13,57
367,91	13,43
368,165	11,84
368,42	9,8
368,675	10,39
368,93	10,95
369,185	8,45
369,44	7,28
369,695	7,48
369,95	7,21
370,205	6,51
370,46	6,1
370,715	6,08
370,97	6,52
371,225	6,39
371,48	6,55
371,734	5,81
371,989	6,93
372,244	6,61
372,499	6,77
372,754	6,06
373,008	4,44
373,263	0,99
373,518	3,45
373,773	1,69
374,027	1,19
374,282	2,55
374,537	3,37
374,791	4,18
375,046	4,4
375,301	3,14
375,555	1,95
375,81	3,28
376,064	3,42
376,319	5,89
376,573	5,24
376,828	2,33
377,082	6,29
377,337	6,71
377,591	6,15
377,846	7,14
378,1	9,34
378,355	9,45
378,609	9,75
378,863	7,75
379,118	7,79
379,372	8,43
379,627	8,17
379,881	6,81
380,135	7,71
380,389	6,93
380,644	7,38
380,898	9,06
381,152	10,15
381,407	8,91
381,661	9,99
381,915	10,64
382,169	11,24
382,423	10,21
382,677	6,38
382,932	6,99
383,186	8,18
383,44	8,77
383,694	9,53
383,948	8,89
384,202	6,62
384,456	9,48
384,71	10,13
384,964	8,11
385,218	8,25
385,472	9,1
385,726	6,79
385,98	6,22
386,234	7,08
386,488	5,25
386,742	7,16
386,996	5,65
387,249	5,86
387,503	7,23
387,757	8,37
388,011	7,71
388,265	9,73
388,518	9,54
388,772	10,26
389,026	11,92
389,28	11,07
389,533	10,78
389,787	12,31
390,041	10,64
390,295	10,94
390,548	13,08
390,802	14,65
391,055	13,64
391,309	14,43
391,563	12,57
391,816	13,83
392,07	15,03
392,323	15,45
392,577	15,9
392,83	16,75
393,084	20,21
393,337	21,71
393,591	25,13
393,844	26,29
394,098	28,23
394,351	30,03
394,604	30,47
394,858	32,39
395,111	31,23
395,364	29,36
395,618	31,43
395,871	31,25
396,124	30,08
396,378	30,36
396,631	29,83
396,884	27,73
397,137	27,68
397,391	28,32
397,644	26,08
397,897	26,16
398,15	27,1
398,403	27,9
398,657	27,57
398,91	24,24
399,163	24,11
399,416	25,13
399,669	23,02
399,922	22,1
400,175	21,11
400,428	24,83
400,681	28,65
400,934	29,89
401,187	33,59
401,44	34,13
401,693	34,7
401,946	34,09
402,199	33,36
402,452	33,5
402,704	31,22
402,957	31,72
403,21	33,04
403,463	32,18
403,716	32,11
403,969	33,64
404,221	33,55
404,474	34,79
404,727	36,72
404,98	38,29
405,232	38,74
405,485	39,35
405,738	41,06
405,99	42,25
406,243	43,89
406,496	43,95
406,748	45
407,001	43,47
407,253	42,96
407,506	43,49
407,759	43,68
408,011	40,71
408,264	37,52
408,516	34,75
408,769	28,89
409,021	25,52
409,274	22,69
409,526	22,48
409,778	19,18
410,031	20,7
410,283	19,8
410,536	23,52
410,788	22,64
411,04	21,8
411,293	22,64
411,545	23,74
411,797	23,16
412,049	22,69
412,302	23,12
412,554	24,11
412,806	23,82
413,058	22,6
413,311	22,49
413,563	21,94
413,815	20,35
414,067	19,11
414,319	18,55
414,571	20,54
414,823	20,25
415,075	20,8
415,328	21,3
415,58	23,92
415,832	24,72
416,084	25,19
416,336	23,08
416,588	25,95
416,84	25,26
417,091	27,73
417,343	25,32
417,595	26,52
417,847	27,21
418,099	28,11
418,351	28,49
418,603	29,76
418,855	31,76
419,106	31,66
419,358	31,85
419,61	31,65
419,862	32,02
420,114	30,97
420,365	30,49
420,617	31,17
420,869	29,68
421,12	30,39
421,372	31,11
421,624	31,7
421,875	32
422,127	30,82
422,379	31,12
422,63	33,57
422,882	32,46
423,133	32,79
423,385	33,06
423,636	33,45
423,888	34,83
424,139	37,78
424,391	35,92
424,642	33,42
424,894	31,67
425,145	32,09
425,396	30,94
425,648	32
425,899	31,32
426,151	30,31
426,402	30,39
426,653	30,56
426,905	28,97
427,156	26,6
427,407	27,65
427,658	28,59
427,91	27,29
428,161	25,92
428,412	26,9
428,663	29,03
428,914	28,8
429,166	29,57
429,417	29,76
429,668	28,89
429,919	28,05
430,17	28,27
430,421	28,79
430,672	31,78
430,923	33,67
431,174	35,4
431,425	45,33
431,676	58,46
431,927	74,99
432,178	96,82
432,429	119,09
432,68	136,96
432,931	151,24
433,182	163,89
433,433	168,69
433,683	173,78
433,934	175,92
434,185	176,26
434,436	175,17
434,687	177,14
434,937	180,56
435,188	179,18
435,439	178,34
435,69	179,47
435,94	179,75
436,191	180,06
436,442	179,99
436,692	180,32
436,943	178,96
437,194	178,96
437,444	181,5
437,695	183,44
437,945	183,2
438,196	181,47
438,447	180,44
438,697	179,13
438,948	174,67
439,198	164,42
439,449	148,66
439,699	131,21
439,949	110,87
440,2	90,2
440,45	73,59
440,701	60,4
440,951	49,9
441,201	44,06
441,452	39,34
441,702	37,02
441,952	36,73
442,203	36,62
442,453	34,73
442,703	35,68
442,953	36,07
443,204	36,77
443,454	35,72
443,704	36,8
443,954	33,96
444,204	34,06
444,455	34,14
444,705	35,35
444,955	33,89
445,205	31,65
445,455	30,65
445,705	32,21
445,955	31,87
446,205	32,19
446,455	32,88
446,705	34,4
446,955	35,68
447,205	37,29
447,455	38,88
447,705	37,64
447,955	37,96
448,205	37,92
448,454	38,49
448,704	39,07
448,954	38,22
449,204	38,33
449,454	38,01
449,704	37,49
449,953	37,78
450,203	40,04
450,453	37,46
450,703	38,88
450,952	38,73
451,202	40,64
451,452	40,42
451,701	43,31
451,951	46,24
452,201	46,79
452,45	45,89
452,7	47,93
452,949	48,13
453,199	49,38
453,448	49,21
453,698	51,2
453,947	49,07
454,197	48,9
454,446	47,85
454,696	49,63
454,945	48,29
455,195	46,02
455,444	47,22
455,693	49,4
455,943	48,56
456,192	48,42
456,442	48,09
456,691	48,17
456,94	48,9
457,189	49,68
457,439	51,56
457,688	53,85
457,937	54,42
458,186	53,6
458,436	53,12
458,685	53
458,934	50,88
459,183	49,48
459,432	50,09
459,681	49,71
459,93	47,36
460,179	47,49
460,429	45,24
460,678	47,18
460,927	48,96
461,176	48,29
461,425	47,4
461,674	50,06
461,923	48,4
462,172	48,35
462,42	46,83
462,669	48,39
462,918	48,29
463,167	47,04
463,416	43,39
463,665	43,74
463,914	44,56
464,162	44,44
464,411	44,78
464,66	45,1
464,909	42,92
465,158	43,25
465,406	42,03
465,655	42,45
465,904	44,59
466,152	45,69
466,401	46,89
466,65	49,04
466,898	48,37
467,147	45,99
467,395	46,21
467,644	49,2
467,893	48,76
468,141	50,2
468,39	47,67
468,638	45,71
468,887	45,53
469,135	45,24
469,384	45,45
469,632	47,65
469,88	47,61
470,129	49,47
470,377	47,53
470,626	50,26
470,874	53,08
471,122	56,2
471,371	55,27
471,619	53,91
471,867	55,28
472,115	55,93
472,364	54,37
472,612	57,51
472,86	56,1
473,108	56,81
473,356	55,53
473,605	55,7
473,853	52,15
474,101	51,54
474,349	50,63
474,597	53,3
474,845	53,46
475,093	52,04
475,341	50,87
475,589	50,29
475,837	49,74
476,085	51,46
476,333	49,21
476,581	49,79
476,829	48,76
477,077	50,06
477,325	50,7
477,573	52,59
477,821	51,6
478,069	53,85
478,317	53,76
478,564	54,72
478,812	53,62
479,06	54,28
479,308	54,67
479,555	57,38
479,803	57,46
480,051	61,1
480,299	62,91
480,546	65,58
480,794	65,91
481,042	70,42
481,289	73,65
481,537	79,84
481,784	83,73
482,032	91,87
482,28	97,7
482,527	102,97
482,775	109,26
483,022	117,21
483,27	124,98
483,517	134,91
483,765	141,49
484,012	150,44
484,259	154,38
484,507	163,36
484,754	169,06
485,002	174,02
485,249	178,12
485,496	185,24
485,744	188,65
485,991	192,62
486,238	195,43
486,486	200,94
486,733	205,66
486,98	211,95
487,227	211,78
487,474	214,9
487,722	218,18
487,969	216,77
488,216	218,22
488,463	221,02
488,71	219,72
488,957	218,43
489,204	218,23
489,451	216,45
489,699	212,67
489,946	208,11
490,193	204,66
490,44	201,1
490,687	195,89
490,934	191,42
491,18	184,32
491,427	180,43
491,674	176,27
491,921	173,39
492,168	167,38
492,415	160,71
492,662	157,25
492,909	154,83
493,155	151,23
493,402	146,33
493,649	142,07
493,896	139,61
494,142	133,44
494,389	129,28
494,636	124,96
494,883	120,83
495,129	117,21
495,376	111,64
495,623	111,56
495,869	108,46
496,116	103,89
496,362	102,08
496,609	102,02
496,855	102,56
497,102	99,99
497,348	97,92
497,595	95,93
497,841	96,82
498,088	92,75
498,334	89,92
498,581	86,35
498,827	82,9
499,074	81,6
499,32	80,66
499,566	81,18
499,813	80,63
500,059	77,86
500,305	75,5
500,552	74,14
500,798	69,26
501,044	71,29
501,29	67,29
501,537	63,98
501,783	64,18
502,029	65,23
502,275	61,05
502,521	59,87
502,767	59,89
503,013	61,98
503,26	56,66
503,506	52,15
503,752	53,12
503,998	50,54
504,244	49,58
504,49	45,2
504,736	45,16
504,982	43,27
505,228	44,38
505,474	42,5
505,72	42,48
505,966	42,08
506,211	43,7
506,457	43,31
506,703	39,26
506,949	36,73
507,195	34,54
507,441	31,5
507,686	32,92
507,932	31,94
508,178	32,56
508,424	31,23
508,669	28,37
508,915	30,46
509,161	30,81
509,406	30,7
509,652	29,45
509,898	30,94
510,143	31,16
510,389	29,65
510,634	26,76
510,88	30,04
511,125	33,38
511,371	32,64
511,616	32,72
511,862	29,85
512,107	28,1
512,353	28,99
512,598	30,2
512,844	27,31
513,089	26,1
513,335	28,27
513,58	27,36
513,825	25,92
514,071	26,25
514,316	26,79
514,561	27,89
514,806	26,48
515,052	28,91
515,297	28,41
515,542	28,37
515,787	27,89
516,033	29,34
516,278	30,56
516,523	29,31
516,768	28,02
517,013	27,19
517,258	26,59
517,503	26,36
517,748	25,59
517,993	26,65
518,238	25,27
518,483	24,52
518,728	24,14
518,973	22,02
519,218	21,66
519,463	22,18
519,708	21,39
519,953	19,6
520,198	17,97
520,443	18,95
520,688	20,68
520,933	20,11
521,177	19,64
521,422	18,49
521,667	20,78
521,912	21,01
522,157	18,52
522,401	20,07
522,646	18,2
522,891	18,47
523,135	19,11
523,38	18,12
523,625	17,46
523,869	18,39
524,114	20,01
524,358	19,45
524,603	18,75
524,848	18,05
525,092	18,01
525,337	20,07
525,581	20,19
525,826	21,87
526,07	22,52
526,315	23,09
526,559	23,21
526,803	22,18
527,048	24,43
527,292	25,11
527,537	24,34
527,781	24,03
528,025	22,1
528,269	22,78
528,514	21,85
528,758	19,9
529,002	21,22
529,247	23,38
529,491	22,3
529,735	25,84
529,979	26,23
530,223	27,87
530,467	25,99
530,712	25,02
530,956	24,88
531,2	25,83
531,444	25,28
531,688	25,2
531,932	25,93
532,176	25,75
532,42	25,78
532,664	27,52
532,908	25,79
533,152	24,66
533,396	25,37
533,64	24,83
533,884	23,46
534,128	25,55
534,371	28,65
534,615	31,63
534,859	34,31
535,103	36,83
535,347	39,26
535,59	45,17
535,834	46,58
536,078	51,7
536,322	60,67
536,565	67,8
536,809	72,86
537,053	83,77
537,296	92,23
537,54	104,93
537,784	118,93
538,027	136,95
538,271	153,53
538,514	169,21
538,758	186,8
539,001	200,5
539,245	216,06
539,488	232,51
539,732	249,53
539,975	264,85
540,219	279,53
540,462	293,21
540,706	307,72
540,949	319,61
541,192	332,73
541,436	349,17
541,679	365,57
541,922	381,17
542,166	393,72
542,409	412,14
542,652	431,59
542,895	451,64
543,139	467,27
543,382	484,63
543,625	494,86
543,868	502,68
544,111	508,18
544,354	511,91
544,598	510,99
544,841	510,32
545,084	505,38
545,327	497,38
545,57	488,99
545,813	480,1
546,056	469,11
546,299	457,17
546,542	447,04
546,785	436,96
547,028	425,33
547,271	414,07
547,514	403,03
547,756	391,09
547,999	381,23
548,242	370,72
548,485	358,47
548,728	348,98
548,971	334,79
549,213	323,06
549,456	307,42
549,699	291,56
549,942	272,15
550,184	252,56
550,427	230,51
550,67	211,57
550,912	190,67
551,155	177,28
551,398	163,55
551,64	151,73
551,883	140,89
552,125	132,26
552,368	123,17
552,61	112,94
552,853	107,32
553,095	98,64
553,338	92,2
553,58	87,39
553,823	80,64
554,065	78,5
554,308	71,59
554,55	66,03
554,792	59,89
555,035	55,02
555,277	49,06
555,519	46,22
555,762	42,52
556,004	40,55
556,246	34,53
556,488	34
556,731	27,61
556,973	27,22
557,215	24,12
557,457	23,42
557,699	23,51
557,941	21,23
558,183	20,01
558,426	21,63
558,668	18,46
558,91	17,75
559,152	16,96
559,394	14,61
559,636	15,31
559,878	15,76
560,12	14,74
560,362	14,57
560,604	13,85
560,845	11,2
561,087	11,15
561,329	12,09
561,571	9,52
561,813	9,61
562,055	8,4
562,297	9,91
562,538	10,49
562,78	13,19
563,022	11,16
563,264	10,95
563,505	11,52
563,747	11,77
563,989	8,39
564,23	8,11
564,472	6,06
564,714	9,35
564,955	8,85
565,197	6
565,438	7,4
565,68	9,63
565,921	7,07
566,163	7,57
566,404	7,32
566,646	8,71
566,887	10,35
567,129	10,91
567,37	9,53
567,612	12,5
567,853	9,85
568,094	10,59
568,336	12,81
568,577	12,12
568,818	12,2
569,06	9,42
569,301	8,36
569,542	9,63
569,783	10,87
570,025	9,99
570,266	9,4
570,507	10,69
570,748	10,18
570,989	9,52
571,23	11,6
571,472	12,05
571,713	12
571,954	13,64
572,195	11,14
572,436	12,39
572,677	14,46
572,918	17,06
573,159	15,71
573,4	15,89
573,641	16,28
573,882	17,32
574,123	16,23
574,364	14,76
574,604	15,07
574,845	14,79
575,086	13,84
575,327	15,62
575,568	16,39
575,809	16,2
576,049	16,1
576,29	16,02
576,531	22,18
576,771	25,58
577,012	28,12
577,253	28,11
577,494	29,23
577,734	29,93
577,975	31,51
578,215	32,72
578,456	32,71
578,697	34,37
578,937	36,83
579,178	37,71
579,418	37,86
579,659	38,82
579,899	37,71
580,14	37,6
580,38	36,11
580,62	37,02
580,861	40,2
581,101	40,84
581,342	41,38
581,582	39,08
581,822	40,42
582,063	39,78
582,303	41,2
582,543	42,63
582,783	44,17
583,024	45,44
583,264	48,6
583,504	48,1
583,744	49,42
583,984	49,07
584,224	49,19
584,465	47,25
584,705	47,77
584,945	49,2
585,185	49,2
585,425	49
585,665	49,67
585,905	50,11
586,145	48,43
586,385	46,84
586,625	48,8
586,865	47,31
587,105	46,65
587,345	46,74
587,585	46,63
587,824	45,71
588,064	45,12
588,304	42,87
588,544	42,96
588,784	41,79
589,024	42,95
589,263	41,87
589,503	42,18
589,743	43,27
589,982	41,94
590,222	41,76
590,462	40,51
590,701	37,67
590,941	39,53
591,181	38,53
591,42	36,38
591,66	38,18
591,899	40,03
592,139	37,6
592,378	37,26
592,618	35,73
592,857	34,69
593,097	33,62
593,336	32,89
593,576	32,13
593,815	34,23
594,055	32,62
594,294	33,23
594,533	32,73
594,773	31,83
595,012	31,68
595,251	31,65
595,491	34,02
595,73	34,74
595,969	34,49
596,208	34,48
596,447	38,21
596,687	38,36
596,926	36,62
597,165	33,64
597,404	34,51
597,643	33,19
597,882	31,7
598,121	31,01
598,36	31,25
598,599	30,86
598,838	29,06
599,077	25,37
599,316	25,62
599,555	25,99
599,794	25,21
600,033	27,04
600,272	27,98
600,511	26,68
600,75	28,06
600,989	29,98
601,228	28,34
601,466	28,08
601,705	28,48
601,944	29,01
602,183	31,29
602,422	31
602,66	30,32
602,899	27,85
603,138	27,78
603,376	26,96
603,615	26,74
603,854	23,95
604,092	25,02
604,331	26,07
604,569	26,35
604,808	25,47
605,047	26,39
605,285	27,2
605,524	27,52
605,762	26,34
606	28,63
606,239	30,79
606,477	33,12
606,716	32,47
606,954	35,52
607,193	37,31
607,431	41,29
607,669	47,67
607,908	56,78
608,146	66,87
608,384	75,34
608,622	83,63
608,861	92,08
609,099	98,73
609,337	104,66
609,575	109,83
609,813	116,36
610,052	121,74
610,29	121,93
610,528	124,13
610,766	127,55
611,004	130,71
611,242	132,58
611,48	134,47
611,718	135,17
611,956	138,4
612,194	139,8
612,432	140,25
612,67	141,17
612,908	142,77
613,146	142,64
613,384	142,82
613,621	142,99
613,859	142,69
614,097	140,96
614,335	138,55
614,573	136,55
614,811	132,66
615,048	125,12
615,286	117,06
615,524	107,48
615,761	96,19
615,999	87,79
616,237	79,72
616,474	73,53
616,712	68,61
616,95	61,93
617,187	56,37
617,425	53,44
617,662	51,86
617,9	48,12
618,137	42,84
618,375	38,98
618,612	36,59
618,85	36,07
619,087	35,85
619,325	33,48
619,562	30,34
619,799	28,04
620,037	25,9
620,274	25,15
620,511	24,23
620,749	21,73
620,986	18,91
621,223	16,37
621,461	15,81
621,698	17,13
621,935	16,83
622,172	14,16
622,409	15,04
622,647	14,99
622,884	14,39
623,121	16,8
623,358	17,35
623,595	17,31
623,832	17,62
624,069	16,32
624,306	17,39
624,543	17,66
624,78	18,43
625,017	19,8
625,254	21,66
625,491	24,87
625,728	26,49
625,965	26,67
626,202	26,21
626,438	26,52
626,675	25,76
626,912	27,98
627,149	29,01
627,386	29,33
627,622	28,59
627,859	29,89
628,096	29,7
628,333	30,96
628,569	31,66
628,806	33,88
629,043	33,42
629,279	34,93
629,516	37,69
629,752	34,69
629,989	34,05
630,225	32,46
630,462	33,07
630,699	31,87
630,935	31,69
631,171	29,29
631,408	30,01
631,644	27,46
631,881	25,5
632,117	23,09
632,354	22
632,59	21,06
632,826	20,59
633,063	19,28
633,299	18,91
633,535	16,37
633,771	14,1
634,008	15,92
634,244	16,36
634,48	15,26
634,716	16,12
634,953	14,53
635,189	14,62
635,425	14,89
635,661	16,53
635,897	15,55
636,133	14,67
636,369	13,47
636,605	10,22
636,841	7,83
637,077	9,27
637,313	10,04
637,549	10,22
637,785	7,77
638,021	8,3
638,257	6,95
638,493	9,46
638,729	8,09
638,965	11,23
639,2	12,95
639,436	12,16
639,672	12,41
639,908	10,37
640,144	12,49
640,379	14,16
640,615	12,57
640,851	14,79
641,086	16,54
641,322	14,94
641,558	13,73
641,793	15,13
642,029	13,35
642,264	13
642,5	12,58
642,736	10,24
642,971	10,5
643,207	9,1
643,442	6,85
643,678	5,65
643,913	6,04
644,148	5,52
644,384	7,04
644,619	6,72
644,855	7,19
645,09	7,94
645,325	8,14
645,561	8,49
645,796	5,4
646,031	7,84
646,266	5,51
646,502	4,36
646,737	6,32
646,972	6,55
647,207	6,75
647,442	5,59
647,678	5,08
647,913	7,07
648,148	7,75
648,383	6,43
648,618	6,43
648,853	7,41
649,088	7,7
649,323	10,83
649,558	11,8
649,793	12,81
650,028	14,04
650,263	11,18
650,498	13,86
650,733	13,95
650,968	14,86
651,202	16,86
651,437	16,51
651,672	14,82
651,907	14,52
652,142	15,1
652,376	15,85
652,611	16,07
652,846	17,88
653,081	19,13
653,315	17,89
653,55	19,54
653,785	18,18
654,019	19,21
654,254	18,17
654,488	19,18
654,723	15,32
654,958	13,4
655,192	12,92
655,427	9,25
655,661	11,19
655,896	13,65
656,13	15,22
656,364	13,73
656,599	10,93
656,833	16,94
657,068	16,96
657,302	17,8
657,536	17,01
657,771	17,41
658,005	19,15
658,239	19,26
658,474	17,3
658,708	17,69
658,942	18,24
659,176	17,89
659,41	16,65
659,645	15,71
659,879	15,73
660,113	13,22
660,347	12,69
660,581	10,42
660,815	10,11
661,049	10,98
661,283	6,72
661,517	6,29
661,751	5,91
661,985	5,61
662,219	6,77
662,453	5,99
662,687	8,1
662,921	5
663,155	4,99
663,389	-0,62
663,622	-1,24
663,856	0,56
664,09	-4,64
664,324	-4,48
664,558	-4,93
664,791	-5,75
665,025	-7,07
665,259	-7,25
665,492	-6,87
665,726	-4,54
665,96	-3,25
666,193	-4,65
666,427	-5,12
666,661	-6,03
666,894	-7,6
667,128	-8,91
667,361	-7,22
667,595	-7,68
667,828	-7,33
668,062	-7,76
668,295	-8,78
668,529	-6,78
668,762	-5,2
668,995	-5,75
669,229	-2,02
669,462	-2,35
669,695	-2,23
669,929	-2,6
670,162	-2,02
670,395	-4,33
670,629	-1,75
670,862	-0,29
671,095	-3,75
671,328	-5,59
671,561	-7,96
671,795	-7,19
672,028	-6,12
672,261	-3,99
672,494	-2,77
672,727	-4,29
672,96	-3,48
673,193	-4,5
673,426	-1,57
673,659	-0,48
673,892	0,52
674,125	0,68
674,358	1,29
674,591	0,66
674,824	0,06
675,057	-0,21
675,29	-2,2
675,523	0,52
675,755	0,74
675,988	0,35
676,221	2,14
676,454	0,74
676,687	1,72
676,919	1,54
677,152	0,9
677,385	0,65
677,617	1,01
677,85	1,4
678,083	0,13
678,315	2,8
678,548	4,28
678,78	3,91
679,013	3,58
679,246	4,65
679,478	4,83
679,711	2,36
679,943	3,16
680,175	0,26
680,408	3,07
680,64	-0,6
680,873	-0,04
681,105	1
681,338	4,02
681,57	3,83
681,802	4,9
682,034	5,22
682,267	7,15
682,499	10,6
682,731	7,68
682,964	5,2
683,196	3,76
683,428	3,51
683,66	2,06
683,892	4,32
684,124	6,28
684,356	7,82
684,589	7,63
684,821	6,32
685,053	5,61
685,285	5,55
685,517	7,32
685,749	6,41
685,981	7,37
686,213	7,64
686,445	7,61
686,676	5,12
686,908	6,76
687,14	6,99
687,372	8,65
687,604	4,98
687,836	8,13
688,068	7,23
688,299	4,52
688,531	2,91
688,763	5,87
688,995	3,94
689,226	5,74
689,458	4,52
689,69	2,6
689,921	2,25
690,153	3,59
690,384	5,75
690,616	4,77
690,848	5,21
691,079	2,98
691,311	0,79
691,542	-0,16
691,774	0,31
692,005	2,47
692,237	5,32
692,468	4,32
692,699	2,39
692,931	2,4
693,162	0,67
693,393	-0,37
693,625	-1,01
693,856	-0,34
694,087	0,04
694,319	0,93
694,55	0,12
694,781	0,91
695,012	-1,4
695,243	-2,35
695,475	-1,33
695,706	0,07
695,937	-0,6
696,168	-1,07
696,399	-1,96
696,63	-0,54
696,861	-0,59
697,092	4,23
697,323	6,93
697,554	6,03
697,785	5,42
698,016	8,47
698,247	8,2
698,478	8,94
698,709	10,15
698,94	11,49
699,171	12,49
699,401	8,91
699,632	10,89
699,863	9,7
700,094	9,3
700,325	11,81
700,555	13,15
700,786	14,48
701,017	15,11
701,247	14,47
701,478	14,79
701,709	14,36
701,939	12,75
702,17	15,92
702,401	17,77
702,631	19,36
702,862	17,44
703,092	14,6
703,323	17,15
703,553	18,43
703,784	17,44
704,014	18,17
704,244	14,12
704,475	12,67
704,705	13,5
704,936	14,22
705,166	11,46
705,396	11,61
705,627	12,01
705,857	11,29
706,087	11,21
706,317	9,56
706,548	7,75
706,778	6,59
707,008	7,11
707,238	7,56
707,468	5,63
707,698	3,69
707,928	2,08
708,158	1,63
708,389	1,33
708,619	0,27
708,849	0,74
709,079	2,15
709,309	0,06
709,539	-1,34
709,768	-1,66
709,998	0,47
710,228	0,78
710,458	0,22
710,688	-2,15
710,918	-2,16
711,148	-3,43
711,378	-3,8
711,607	-4,99
711,837	-5,19
712,067	-5,3
712,297	-5,55
712,526	-5,94
712,756	-5,43
712,986	-8,01
713,215	-9,58
713,445	-9,69
713,674	-7,71
713,904	-7
714,134	-3,09
714,363	-3,68
714,593	-2,85
714,822	-1,68
715,052	-0,31
715,281	-0,41
715,511	-1,67
715,74	-2,11
715,969	-2,78
716,199	-3,03
716,428	-2,35
716,657	-2,24
716,887	-1,04
717,116	-3,92
717,345	-3,01
717,575	-3,42
717,804	-2,68
718,033	-2,93
718,262	-2,33
718,492	-1,32
718,721	0,27
718,95	0
719,179	-1,27
719,408	1,1
719,637	-1,34
719,866	-2,94
720,095	-1,34
720,324	-1,4
720,553	-3,09
720,782	-4,9
721,011	-5,84
721,24	-9,25
721,469	-7,88
721,698	-8,51
721,927	-9,41
722,156	-11,37
722,385	-11,09
722,613	-8,8
722,842	-8,44
723,071	-6,35
723,3	-3,57
723,529	-4,32
723,757	-4,81
723,986	-6,61
724,215	-6,19
724,443	-4,76
724,672	-3,7
724,901	-3,08
725,129	-2,44
725,358	-0,53
725,586	-1,41
725,815	-2,15
726,043	-2,33
726,272	-3,36
726,5	-4,25
726,729	-2,28
726,957	-3,42
727,186	-3,75
727,414	-2,53
727,642	-3,05
727,871	-0,98
728,099	-0,69
728,327	-0,88
728,556	-0,5
728,784	0,12
729,012	-0,22
729,241	2,34
729,469	0,88
729,697	-0,94
729,925	-0,35
730,153	-2,14
730,381	-4,05
730,61	-4,24
730,838	-5,11
731,066	-5,15
731,294	-4,91
731,522	-6,29
731,75	-7,4
731,978	-7,57
732,206	-7,96
732,434	-9,48
732,662	-8,66
732,89	-10,15
733,118	-10,35
733,346	-9,57
733,573	-10,64
733,801	-10,92
734,029	-6,36
734,257	-5,53
734,485	-3,89
734,712	-1,28
734,94	-2,33
735,168	0,71
735,396	0,78
735,623	-0,09
735,851	1,87
736,078	2,41
736,306	3,36
736,534	4,6
736,761	5,22
736,989	3,59
737,216	3,69
737,444	2,49
737,671	4,04
737,899	7,75
738,126	7,25
738,354	6,7
738,581	6
738,809	6
739,036	4,62
739,263	4,6
739,491	2,52
739,718	3,48
739,945	6,39
740,173	6,1
740,4	6,95
740,627	5,48
740,854	5,68
741,081	3,01
741,309	1,21
741,536	-1,55
741,763	-3,05
741,99	-1,24
742,217	-2,1
742,444	-3,4
742,671	-3,55
742,898	-3,86
743,125	-5,26
743,352	-8,63
743,579	-9,92
743,806	-10,64
744,033	-9,3
744,26	-9,23
744,487	-9,13
744,714	-10,21
744,941	-11,17
745,167	-7,81
745,394	-8
745,621	-7,3
745,848	-7,95
746,075	-6,58
746,301	-3,9
746,528	-1,1
746,755	-3,1
746,981	-3,02
747,208	-1,3
747,435	0,19
747,661	1,95
747,888	2,75
748,114	2,6
748,341	5,22
748,567	5,84
748,794	4,53
749,02	3,52
749,247	2,16
749,473	4,01
749,7	4,61
749,926	2,32
750,152	6,15
750,379	6,86
750,605	7,29
750,831	7,84
751,058	7,5
751,284	6,56
751,51	8,13
751,737	9,75
751,963	8,31
752,189	6,22
752,415	5,51
752,641	3,77
752,867	4,01
753,094	3,27
753,32	2,82
753,546	2,23
753,772	4,53
753,998	2,42
754,224	0,94
754,45	0,14
754,676	-1,29
754,902	-2,03
755,128	-1,98
755,354	-3,58
755,579	-1,93
755,805	-0,45
756,031	-1,5
756,257	-3,37
756,483	-5,1
756,709	-6,32
756,934	-4,95
757,16	-7,31
757,386	-7
757,612	-7,95
757,837	-8,1
758,063	-6,9
758,289	-4,61
758,514	-5,58
758,74	-8,43
758,965	-9,4
759,191	-7,49
759,416	-5,13
759,642	-2,15
759,868	-1,14
760,093	1,28
760,318	-1,37
760,544	-1,32
760,769	-2,52
760,995	-1,7
761,22	-0,58
761,445	0,53
761,671	2,6
761,896	5,52
762,121	5,85
762,347	6,02
762,572	3,72
762,797	3,8
763,022	4,99
763,248	8,95
763,473	9,72
763,698	9,4
763,923	9
764,148	8,39
764,373	8,43
764,598	8,95
764,823	8,84
765,048	6,89
765,273	4,54
765,498	3,98
765,723	4,35
765,948	6,26
766,173	5,09
766,398	4,39
766,623	0,61
766,848	-0,03
767,073	-1,85
767,298	-1,67
767,522	-2,32
767,747	-1,64
767,972	-1,64
768,197	-2,4
768,421	-2,86
768,646	-4,12
768,871	-7,28
769,095	-6,76
769,32	-6,45
769,545	-5,36
769,769	-4,43
769,994	-4,23
770,218	-6,2
770,443	-5,55
770,667	-4,47
770,892	-3,48
771,116	-4,23
771,341	-3,1
771,565	-2,41
771,79	-1,16
772,014	-1,51
772,238	-1,72
772,463	-0,11
772,687	1,46
772,911	0,85
773,136	-0,58
773,36	0,12
773,584	4,02
773,808	1,56
774,033	1,19
774,257	0,86
774,481	0,54
774,705	-0,7
774,929	-1,27
775,153	-2,13
775,377	-1,71
775,602	-1,89
775,826	-1,04
776,05	-1,16
776,274	-2,05
776,498	-3,15
776,722	-3,04
776,945	-1,99
777,169	-2
777,393	-2,18
777,617	-3,43
777,841	-3,88
778,065	-2,27
778,289	-3
778,512	-4,3
778,736	-4,69
778,96	-3,97
779,184	-1,82
779,407	-3,21
779,631	-4,51
779,855	-5,18
780,078	-4,5
780,302	-5,26
780,526	-7,5
780,749	-5,45
780,973	-3,8
781,196	-2,06
781,42	-3
781,643	-2,76
781,867	-2,36
782,09	-3,01
782,314	-2,89
782,537	-2,75
782,76	-2,87
782,984	-1,29
783,207	-0,79
783,431	-0,33
783,654	-1,63
783,877	-3,28
784,1	-3,95
784,324	-4,56
784,547	-3,91
784,77	-5,83
784,993	-6,56
785,216	-7,76
785,44	-7,48
785,663	-8,96
785,886	-8,02
786,109	-9,08
786,332	-7,32
786,555	-5,23
786,778	-3,92
787,001	-4,22
787,224	-4,27
787,447	-4,34
787,67	-3,37
787,893	-3,73
788,116	-3,49
788,339	-2,11
788,561	-2,42
788,784	-3,87
789,007	-3,84
789,23	-5,67
789,453	-6,33
789,675	-7,15
789,898	-8,13
790,121	-9,5
790,344	-10,18
790,566	-9,09
790,789	-7,7
791,012	-7,74
791,234	-6,66
791,457	-4,78
791,679	-4,98
791,902	-4,21
792,124	-3,48
792,347	-3,25
792,569	-3,61
792,792	-5,16
793,014	-2,54
793,237	-2,07
793,459	-4,07
793,681	-4,35
793,904	-3,88
794,126	-3,99
794,348	-3,3
794,571	-3,53
794,793	-5,63
795,015	-5,47
795,237	-6,83
795,46	-6,28
795,682	-4,47
795,904	-3,94
796,126	-4,31
796,348	-3,87
796,57	-1,08
796,792	-2,09
797,014	1,48
797,237	4,15
797,459	4,43
797,681	3,51
797,903	2,06
798,124	3,4
798,346	12,92
798,568	15,71
798,79	18,26
799,012	18,25
799,234	18,89
799,456	20,94
799,678	22,6
799,899	20,12
800,121	17,29
800,343	17,71
800,565	16,69
800,786	17,06
801,008	17,4
801,23	17,19
801,451	18,35
801,673	17,56
801,895	16,85
802,116	18,3
802,338	19,28
802,559	17,08
802,781	17,46
803,002	18,75
803,224	19,64
803,445	17,83
803,667	18,85
803,888	15,54
804,109	14,74
804,331	15,08
804,552	16,02
804,773	18,77
804,995	16,74
805,216	5,43
805,437	2,86
805,658	0,5
805,88	0,19
806,101	1,27
806,322	0,16
806,543	-0,72
806,764	-1,29
806,985	0,83
807,207	1,43
807,428	1,81
807,649	-0,38
807,87	-0,89
808,091	-0,42
808,312	-0,33
808,533	4,27
808,754	5,72
808,975	4,11
809,195	5,4
809,416	6,73
809,637	6,16
809,858	4,64
810,079	3,67
810,3	3,87
810,52	3,16
810,741	2,68
810,962	1,48
811,183	-0,11
811,403	-0,42
811,624	-1,58
811,845	-0,89
812,065	0,43
812,286	1,29
812,506	2,25
812,727	2,68
812,948	2,3
813,168	4,45
813,389	3,1
813,609	4,05
813,83	3,06
814,05	1,93
814,27	2,54
814,491	4,27
814,711	3,34
814,931	-0,05
815,152	0,07
815,372	-1,64
815,592	-3,02
815,813	-3,11
816,033	-3,68
816,253	-2,53
816,473	-3,4
816,694	-2,34
816,914	-1,12
817,134	-1,92
817,354	-3,17
817,574	-0,98
817,794	-0,6
818,014	-0,95
818,234	-2,45
818,454	-2,93
818,674	-4,51
818,894	-6,95
819,114	-5,02
819,334	-6,55
819,554	-5,83
819,774	-3,72
819,994	-6,75
820,214	-7,53
820,433	-7,6
820,653	-7,97
820,873	-6,27
821,093	-5,24
821,312	-5,79
821,532	-3,87
821,752	-0,64
821,972	-3,56
822,191	-2,68
822,411	-3,01
822,63	-2,63
822,85	-3,55
823,07	-5,23
823,289	-3,98
823,509	-5,49
823,728	-4,92
823,948	-5,06
824,167	-4,66
824,387	-6,68
824,606	-5,15
824,825	-5,86
825,045	-4,29
825,264	-4,47
825,483	-3,14
825,703	-2,01
825,922	-3,77
826,141	-4,26
826,361	-4,82
826,58	-8,1
826,799	-8,18
827,018	-6,78
827,237	-6,68
827,456	-5,47
827,676	-5,58
827,895	-6,15
828,114	-5,58
828,333	-5,49
828,552	-5,8
828,771	-4,63
828,99	-7,32
829,209	-7,44
829,428	-5,32
829,647	-6,18
829,866	-5,68
830,084	-6,88
830,303	-5,86
830,522	-6,68
830,741	-6,7
830,96	-6,39
831,179	-4,64
831,397	-6,39
831,616	-4,61
831,835	-5,17
832,053	-3,99
832,272	-3,68
832,491	-1,67
832,709	-1,57
832,928	-0,69
833,147	-0,68
833,365	0,49
833,584	3,22
833,802	5,93
834,021	5,13
834,239	6,12
834,458	4,27
834,676	1,27
834,894	0,3
835,113	-0,04
835,331	-0,78
835,55	-1,76
835,768	-0,21
835,986	0,69
836,204	-0,19
836,423	0,81
836,641	-0,33
836,859	0,09
837,077	-0,53
837,296	0,26
837,514	0,07
837,732	-0,99
837,95	-1,85
838,168	-1,17
838,386	-3,99
838,604	-1,63
838,822	-1,38
839,04	-2,07
839,258	-3,54
839,476	-2,79
839,694	-3,27
839,912	-4,63
840,13	-5,37
840,348	-4,37
840,566	-7
840,783	-5,52
841,001	-7,97
841,219	-6,47
841,437	-5,02
841,655	-4,2
841,872	-5,5
842,09	-5,41
842,308	-4,07
842,525	-4,29
842,743	-4,15
842,961	-6,06
843,178	-7,07
843,396	-3,66
843,613	-3,17
843,831	-0,34
844,048	-1,77
844,266	-1,73
844,483	-1,47
844,701	-3,51
844,918	-3,12
845,136	-1,34
845,353	-4,14
845,57	-4,54
845,788	-2,63
846,005	-2,86
846,222	-4,32
846,439	-1,76
846,657	-0,63
846,874	0,93
847,091	-0,15
847,308	0,69
847,526	-1,28
847,743	-0,97
847,96	-2,4
848,177	-1,48
848,394	-0,45
848,611	0,04
848,828	-0,21
849,045	-0,19
849,262	0,05
849,479	-0,1
849,696	0,26
849,913	-1,41
850,13	-4,64
850,347	-2,84
850,564	-6,22
850,78	-6,25
850,997	-7,34
851,214	-6,8
851,431	-5,08
851,647	-6,92
851,864	-6,3
852,081	-4,2
852,298	-6,93
852,514	-8,18
852,731	-7,3
852,948	-6,52
853,164	-7,28
853,381	-7,52
853,597	-9,32
853,814	-11,26
854,03	-13,65
854,247	-11,11
854,463	-10,88
854,68	-10,78
854,896	-10,4
855,113	-10,97
855,329	-10,74
855,545	-8,93
855,762	-9,39
855,978	-12,05
856,194	-13,42
856,411	-10,74
856,627	-8,87
856,843	-8,01
857,059	-6,59
857,275	-5,61
857,492	-6,76
857,708	-4,15
857,924	-3,54
858,14	-1,04
858,356	-0,56
858,572	-0,8
858,788	-2,53
859,004	0,39
859,22	-1,5
859,436	-2,17
859,652	-2,11
859,868	-2,8
860,084	-3,17
860,3	-4,03
860,516	-3,39
860,731	-1,54
860,947	-3,83
861,163	-2,25
861,379	-1,48
861,595	-1,79
861,81	-2,53
862,026	-2,94
862,242	-2,74
862,457	-2,62
862,673	-1,14
862,889	-1,88
863,104	-3,18
863,32	-2,49
863,535	-2,44
863,751	-5,77
863,966	-3,32
864,182	-1,36
864,397	-3,36
864,613	-4,42
864,828	-6,2
865,044	-5,96
865,259	-4,43
865,474	-5,02
865,69	-4,11
865,905	-2,05
866,12	-3,06
866,336	-3,61
866,551	-3,38
866,766	-4,06
866,981	-4,93
867,196	-4,8
867,412	-5,3
867,627	-4,66
867,842	-5,69
868,057	-6,39
868,272	-6,7
868,487	-7,07
868,702	-8,14
868,917	-10,27
869,132	-8,79
869,347	-8,95
869,562	-8,3
869,777	-7,78
869,992	-8,11
870,207	-8,85
870,422	-9,55
870,636	-11,37
870,851	-12,46
871,066	-12,24
871,281	-12,67
871,495	-14,44
871,71	-11,89
871,925	-14,6
872,14	-14,71
872,354	-17,2
872,569	-19,29
872,783	-18,17
872,998	-17,92
873,213	-18,01
873,427	-16,12
873,642	-14,07
873,856	-14,48
874,071	-15,08
874,285	-16,16
874,5	-17,37
874,714	-17,63
874,928	-17,94
875,143	-18,03
875,357	-18,15
875,571	-18,9
875,786	-19,78
876	-16,28
876,214	-14,85
876,429	-17,3
876,643	-16,75
876,857	-15,48
877,071	-14,56
877,285	-15,27
877,499	-16,95
877,714	-16,18
877,928	-13,38
878,142	-13,79
878,356	-15,27
878,57	-14,48
878,784	-12,62
878,998	-12,92
879,212	-10,53
879,426	-11,41
879,639	-8,85
879,853	-10,55
880,067	-10,14
880,281	-11,82
880,495	-9,46
880,709	-8,02
880,922	-6,65
881,136	-5,64
881,35	-3,78
881,564	-4,49
881,777	-5,93
881,991	-4,49
882,205	-0,54
882,418	0,38
882,632	-2,45
882,845	-3,92
883,059	-2,08
883,273	-2,75
883,486	-3,68
883,7	-1,83
883,913	-1,48
884,126	0,04
884,34	-0,68
884,553	-2,44
884,767	1,76
884,98	0,71
885,193	0,71
885,407	-1,03
885,62	1,33
885,833	2,14
886,046	3,54
886,26	0,62
886,473	1,19
886,686	0,51
886,899	3,25
887,112	1,62
887,326	-0,36
887,539	-0,6
887,752	0,1
887,965	-2,17
888,178	-0,68
888,391	0,18
888,604	-0,18
888,817	-2,69
889,03	-3,1
889,243	-3,63
889,455	-3,64
889,668	-3,56
889,881	-1,28
890,094	-1,24
890,307	-2,28
890,52	-0,99
890,732	-1,17
890,945	-1,49
891,158	-1,92
891,37	-4,32
891,583	-4
891,796	-3,3
892,008	-3,52
892,221	-5,52
892,434	-8,94
892,646	-10,25
892,859	-10,74
893,071	-10,31
893,284	-8,98
893,496	-9,66
893,709	-9,98
893,921	-8,47
894,133	-8,57
894,346	-10,42
894,558	-10,18
894,771	-10,77
894,983	-9,51
895,195	-8,2
895,407	-6,83
895,62	-8,51
895,832	-7,19
896,044	-5,54
896,256	-6,38
896,468	-8,76
896,681	-7,5
896,893	-7,99
897,105	-7,83
897,317	-7,25
897,529	-6,46
897,741	-6,01
897,953	-5,23
898,165	-5,58
898,377	-7,16
898,589	-6,19
898,801	-6,63
899,013	-4,94
899,224	-3,36
899,436	-1,92
899,648	-0,84
899,86	-2
900,072	-0,5
900,283	0,85
900,495	2,62
900,707	3,42
900,919	2,54
901,13	2,67
901,342	2,28
901,554	2,9
901,765	3,69
901,977	0,75
902,188	1,21
902,4	-0,24
902,611	-1,5
902,823	-2,22
903,034	-2,69
903,246	-5,53
903,457	-5,21
903,669	-6,95
903,88	-8,05
904,091	-8,73
904,303	-7,23
904,514	-7,4
904,725	-6,54
904,936	-4,72
905,148	-3,89
905,359	-1,79
905,57	-2,23
905,781	-4,08
905,992	-4,08
906,204	-5,13
906,415	-4,59
906,626	-7,07
906,837	-6,93
907,048	-7,39
907,259	-8,63
907,47	-9,38
907,681	-9,24
907,892	-7,38
908,103	-10,33
908,314	-12,99
908,525	-11,05
908,735	-10,6
908,946	-11,1
909,157	-12,19
909,368	-10,25
909,579	-9,5
909,789	-9,37
910	-11,11
910,211	-10,93
910,421	-9,81
910,632	-8,38
910,843	-11,69
911,053	-10,12
911,264	-8,46
911,475	-10,4
911,685	-10,6
911,896	-10,93
912,106	-9,25
912,317	-8,48
912,527	-7,34
912,737	-7,1
912,948	-7,43
913,158	-6,55
913,369	-8,3
913,579	-7,97
913,789	-7,77
914	-5,1
914,21	-4,87
914,42	-5,84
914,63	-5,18
914,841	-5,54
915,051	-4,69
915,261	-4,58
915,471	-2,72
915,681	-1,36
915,891	-2,09
916,101	-3,23
916,311	-3,21
916,521	-1,97
916,731	-0,8
916,941	0,1
917,151	-1,1
917,361	1,16
917,571	-1,39
917,781	-3,32
917,991	-4,41
918,201	-4,98
918,411	-5,79
918,621	-6,16
918,83	-5,56
919,04	-7,05
919,25	-6,37
919,46	-5,3
919,669	-7,88
919,879	-6,89
920,089	-7,23
920,298	-7,7
920,508	-5,93
920,717	-5,24
920,927	-7,28
921,136	-6,37
921,346	-6,87
921,555	-9,06
921,765	-10,15
921,974	-11,69
922,184	-14,28
922,393	-14,49
922,603	-15,07
922,812	-12,86
923,021	-13,71
923,23	-15,1
923,44	-16,61
923,649	-16,75
923,858	-17,22
924,067	-17,39
924,277	-18,28
924,486	-16,29
924,695	-16,65
924,904	-15,11
925,113	-16,3
925,322	-15,82
925,531	-15,89
925,74	-16,78
925,949	-18,94
926,158	-15,62
926,367	-17,24
926,576	-18,42
926,785	-18,45
926,994	-21,22
927,203	-22,14
927,412	-20,76
927,621	-21,8
927,83	-17,91
928,038	-17,68
928,247	-18,14
928,456	-17,57
928,665	-16,32
928,873	-15,85
929,082	-12,85
929,291	-13,16
929,499	-10,86
929,708	-10,74
929,916	-10,45
930,125	-11,5
930,333	-11,95
930,542	-10,52
930,75	-8,46
930,959	-7,21
931,167	-6,92
931,376	-9,73
931,584	-8,44
931,793	-8,43
932,001	-8,14
932,209	-10,85
932,418	-10,91
932,626	-12,87
932,834	-12,08
933,042	-13,71
933,251	-13,28
933,459	-13,51
933,667	-12,98
933,875	-14,41
934,083	-12,07
934,291	-13,63
934,499	-12,79
934,707	-10,96
934,915	-11,19
935,123	-9,41
935,331	-8,88
935,539	-11,6
935,747	-11,92
935,955	-12,96
936,163	-13,45
936,371	-13,36
936,579	-10,63
936,787	-10,4
936,995	-11,17
937,202	-12,94
937,41	-13,52
937,618	-14,05
937,826	-12,06
938,033	-15,73
938,241	-17,09
938,449	-16,29
938,656	-13,47
938,864	-13,69
939,071	-14,42
939,279	-14,07
939,486	-11,7
939,694	-11,66
939,901	-11,92
940,109	-11,7
940,316	-9,64
940,524	-11,05
940,731	-10,75
940,939	-9,38
941,146	-10,32
941,353	-11,13
941,561	-11,9
941,768	-13,69
941,975	-12,92
942,182	-13,68
942,39	-13,51
942,597	-11,05
942,804	-10,55
943,011	-11,88
943,218	-12,39
943,425	-12,66
943,632	-12,32
943,839	-12,36
944,046	-13,33
944,253	-13,1
944,46	-11,47
944,667	-8,12
944,874	-8,38
945,081	-7,39
945,288	-5,13
945,495	-2,59
945,702	-2,59
945,909	-3,84
946,115	-2,02
946,322	-2,4
946,529	-3,12
946,736	-2,97
946,942	-1,88
947,149	-2,97
947,356	-4,3
947,562	-6,83
947,769	-5,25
947,976	-5,54
948,182	-4,4
948,389	-4,64
948,595	-4,33
948,802	-4,42
949,008	-6,41
949,215	-5,84
949,421	-6,03
949,628	-6,91
949,834	-5,52
950,04	-4,75
950,247	-2,58
950,453	-1,31
950,659	-2,49
950,865	-1,98
951,072	-5,88
951,278	-4,57
951,484	-5,41
951,69	-8,9
951,896	-9,63
952,103	-9,62
952,309	-8,4
952,515	-10,84
952,721	-8,34
952,927	-8,01
953,133	-9,65
953,339	-11,09
953,545	-10,74
953,751	-9,54
953,957	-5,95
954,163	-8,51
954,369	-7,94
954,574	-8,88
954,78	-9,2
954,986	-7,38
955,192	-6,02
955,398	-5,24
955,603	-7,26
955,809	-5,18
956,015	-3,22
956,22	-3,63
956,426	-3,54
956,632	-7,24
956,837	-7,19
957,043	-6,87
957,248	-5,46
957,454	-6,14
957,66	-6,64
957,865	-6,66
958,07	-4,87
958,276	-6,38
958,481	-7,49
958,687	-9,26
958,892	-8,04
959,097	-8,95
959,303	-8,36
959,508	-8,37
959,713	-7,91
959,919	-8,55
960,124	-9,68
960,329	-10
960,534	-6,38
960,739	-5,55
960,945	-4,2
961,15	-3,86
961,355	-5,01
961,56	-8,51
961,765	-9,13
961,97	-8,5
962,175	-8,33
962,38	-10,54
962,585	-11,2
962,79	-13,27
962,995	-12,93
963,2	-13,71
963,404	-14,94
963,609	-17,25
963,814	-17,33
964,019	-19,97
964,224	-21,65
964,428	-19,95
964,633	-17,67
964,838	-16,62
965,042	-15,57
965,247	-17,14
965,452	-16,62
965,656	-16,66
965,861	-15,93
966,066	-16,53
966,27	-13,73
966,475	-10,16
966,679	-13,01
966,884	-12,34
967,088	-14,4
967,292	-13,59
967,497	-12,5
967,701	-14,16
967,906	-12,17
968,11	-11,7
968,314	-9,62
968,518	-10,88
968,723	-8,99
968,927	-6,73
969,131	-4,65
969,335	-2,82
969,539	-3,52
969,744	-1,44
969,948	0,43
970,152	1,67
970,356	2,62
970,56	3,8
970,764	1,89
970,968	3,12
971,172	4,11
971,376	3,84
971,58	4,86
971,784	4,99
971,988	4,05
972,192	6,08
972,395	5,22
972,599	1,6
972,803	-1,63
973,007	0
973,21	-1,55
973,414	-0,96
973,618	-1,82
973,822	-3,05
974,025	-1,51
974,229	-1,15
974,432	-3,74
974,636	-5,34
974,84	-3,53
975,043	-2,26
975,247	-4,5
975,45	-6,8
975,654	-6,82
975,857	-4,12
976,06	-4,67
976,264	-5,63
976,467	-4,26
976,671	-3,64
976,874	-2,83
977,077	-2,59
977,28	-3,88
977,484	-5,69
977,687	-5,81
977,89	-5,24
978,093	-5,85
978,297	-5,26
978,5	-6,91
978,703	-5,51
978,906	-3,38
979,109	-3,19
979,312	-2,42
979,515	-2,86
979,718	-3,03
979,921	-3,45
980,124	-3,7
980,327	-3,08
980,53	-3,51
980,733	-0,67
980,936	0,74
981,138	-1,32
981,341	-1,4
981,544	-2,13
981,747	-0,96
981,949	-2,29
982,152	-2,5
982,355	-2,33
982,558	-0,04
982,76	-3,72
982,963	-5,09
983,165	-5,23
983,368	-5,88
983,571	-7,57
983,773	-5,15
983,976	-3,28
984,178	-2,17
984,381	-2,2
984,583	-3,28
984,785	-2,96
984,988	-0,91
985,19	-0,52
985,392	-0,71
985,595	-2,36
985,797	-2,86
985,999	-0,58
986,202	-0,79
986,404	-2,02
986,606	-0,12
986,808	-1,75
987,01	-0,78
987,212	-1,33
987,415	-2,28
987,617	-2,65
987,819	-2,91
988,021	-1,86
988,223	-1,8
988,425	-2,83
988,627	-2,82
988,829	-6,65
989,031	-3,98
989,232	-4,91
989,434	-3,89
989,636	-3,51
989,838	-2,39
990,04	-2,1
990,242	-5,17
990,443	-8,17
990,645	-6,07
990,847	-3,73
991,048	-4,57
991,25	-6,46
991,452	-6,45
991,653	-8,16
991,855	-8,72
992,057	-8,99
992,258	-9,06
992,46	-7,57
992,661	-6,78
992,863	-9,38
993,064	-7,94
993,265	-8,77
993,467	-9,89
993,668	-8,38
993,87	-8,6
994,071	-6,97
994,272	-7,39
994,473	-6,33
994,675	-4,42
994,876	-4,87
995,077	-3,92
995,278	-2,36
995,48	0,02
995,681	-2,33
995,882	-1,08
996,083	-2,18
996,284	-4,16
996,485	-2,75
996,686	-2,17
996,887	-4,25
997,088	-7,15
997,289	-7,65
997,49	-6,44
997,691	-6,81
997,892	-5,98
998,092	-2,72
998,293	-1,91
998,494	-3,3
998,695	-5,32
998,896	-3,28
999,096	-3,81
999,297	-3,6
999,498	-5,24
999,698	-6,45
999,899	-8,81
1000,1	-10,28
1000,3	-11,35
1000,501	-12,64
1000,701	-13,8
1000,902	-15,74
1001,102	-15,44
1001,303	-14,32
1001,503	-17,48
1001,704	-18,73
1001,904	-17,52
1002,105	-18,89
1002,305	-18,04
1002,505	-19,53
1002,706	-19,92
1002,906	-19,49
1003,106	-20,4
1003,306	-19,22
1003,507	-18,27
1003,707	-19,53
1003,907	-18,77
1004,107	-16,64
1004,307	-17,71
1004,507	-17,26
1004,707	-16,85
1004,907	-16,4
1005,107	-17
1005,308	-16,02
1005,507	-16,81
1005,707	-14,68
1005,907	-14,5
1006,107	-12,25
1006,307	-11,26
1006,507	-11,46
1006,707	-10,67
1006,907	-10,06
1007,106	-10,44
1007,306	-9,48
1007,506	-8,13
1007,706	-7,19
1007,905	-8,91
1008,105	-9,22
1008,305	-8,14
1008,504	-7,08
1008,704	-2,09
1008,903	-1,93
1009,103	-0,65
1009,303	-0,87
1009,502	-2,02
1009,702	-2,68
1009,901	-3,62
1010,1	-4,2
1010,3	-3,89
1010,499	-5,49
1010,699	-5,33
1010,898	-7,5
1011,097	-7,53
1011,296	-8,33
1011,496	-9,39
1011,695	-9,67
1011,894	-10,79
1012,093	-9,22
1012,293	-9,57
1012,492	-9,75
1012,691	-8,98
1012,89	-8,71
1013,089	-10,14
1013,288	-9,9
1013,487	-11,34
1013,686	-13,15
1013,885	-14,19
1014,084	-11,39
1014,283	-12,46
1014,482	-13,01
1014,681	-13,56
1014,88	-17,73
1015,078	-16,49
1015,277	-18,07
1015,476	-19,47
1015,675	-18,86
1015,873	-17,77
1016,072	-16,85
1016,271	-15,5
1016,47	-18,88
1016,668	-17,12
1016,867	-19,48
1017,065	-20,44
1017,264	-21,22
1017,463	-19,16
1017,661	-19,29
1017,86	-18,94
1018,058	-18,03
1018,256	-18,11
1018,455	-20,01
1018,653	-19,61
1018,852	-18,83
1019,05	-21,27
1019,248	-21,45
1019,447	-20,95
1019,645	-22,83
1019,843	-23,69
1020,041	-21,3
1020,24	-23,22
1020,438	-20,18
1020,636	-21,51
1020,834	-23,28
1021,032	-21,4
1021,23	-23,03
1021,428	-22,17
1021,626	-18,34
1021,824	-17,22
1022,022	-17,9
1022,22	-17,49
1022,418	-17,44
1022,616	-18,03
1022,814	-19,09
1023,012	-17,32
1023,21	-14,94
1023,408	-15,06
1023,606	-17,64
1023,803	-13,17
1024,001	-13,15
1024,199	-16,18
1024,397	-15,74
1024,594	-14,84
1024,792	-15,61
1024,99	-16,18
1025,187	-14,77
1025,385	-11,79
1025,582	-11,39
1025,78	-9,14
1025,977	-8,97
1026,175	-9,73
1026,372	-8,69
1026,57	-10,42
1026,767	-8,05
1026,965	-8,46
1027,162	-8,25
1027,359	-7,91
1027,557	-7,73
1027,754	-10,54
1027,951	-11,2
1028,148	-10,33
1028,346	-11,12
1028,543	-13,32
1028,74	-12,14
1028,937	-12,92
1029,134	-13,85
1029,331	-14,9
1029,528	-15,3
1029,725	-14,37
1029,923	-18,41
1030,12	-15,11
1030,317	-12,75
1030,513	-12,48
1030,71	-11,18
1030,907	-10,18
1031,104	-9,95
1031,301	-9,09
1031,498	-10,59
1031,695	-10,67
1031,892	-11,35
1032,088	-11,01
1032,285	-12,75
1032,482	-14,19
1032,678	-15,4
1032,875	-16,82
1033,072	-15,5
1033,268	-17
1033,465	-17,07
1033,662	-18,42
1033,858	-17,6
1034,055	-17,81
1034,251	-15,95
1034,448	-15,68
1034,644	-15,94
1034,84	-15,57
1035,037	-13,82
1035,233	-13,2
1035,43	-11,62
1035,626	-11,06
1035,822	-12,22
1036,019	-11,64
1036,215	-15,13
1036,411	-16,48
1036,607	-17,33
1036,803	-19,2
1037	-18,87
1037,196	-21,27
1037,392	-23,4
1037,588	-24,51
1037,784	-24,98
1037,98	-25,41
1038,176	-25,4
1038,372	-25,29
1038,568	-23,37
1038,764	-23,44
1038,96	-21,69
1039,156	-22,58
1039,352	-23,03
1039,547	-22,22
1039,743	-21,08
1039,939	-19,14
1040,135	-19,83
1040,331	-20,93
1040,526	-20,24
1040,722	-21,73
1040,918	-22,19
1041,113	-24,51
1041,309	-24,97
1041,505	-27,27
1041,7	-25,85
1041,896	-25,09
1042,091	-25,96
1042,287	-25,79
1042,482	-25,09
1042,678	-25,43
1042,873	-24,74
1043,069	-26,42
1043,264	-24,94
1043,459	-23,39
1043,655	-22,35
1043,85	-22,86
1044,045	-21,88
1044,24	-21,35
1044,436	-19,6
1044,631	-20,49
1044,826	-19,64
1045,021	-22,74
1045,216	-21,69
