Data from FLMT021711__26__16-33-21-780.txt Node

Date: Tue Nov 05 16:33:21 CET 2024
User: Etudiants TP
Spectrometer: FLMT02171
Trigger mode: 0
Integration Time (sec): 1,000000E-1
Scans to average: 5
Electric dark correction enabled: true
Nonlinearity correction enabled: false
Boxcar width: 15
XAxis mode: Wavelengths
Number of Pixels in Spectrum: 3648
>>>>>Begin Spectral Data<<<<<
194,658	-46,38
194,923	-45,7
195,188	-38,05
195,453	-36,97
195,717	-31,73
195,982	-31,9
196,247	-29,69
196,512	-31,07
196,777	-27,64
197,042	-25,37
197,307	-24,4
197,572	-19,76
197,837	-17,72
198,101	-15,95
198,366	-13,7
198,631	-12,22
198,896	-6,35
199,161	-1,37
199,425	4,5
199,69	13,88
199,955	14,63
200,22	13,73
200,484	13,54
200,749	13,34
201,014	14,94
201,278	16,4
201,543	17,23
201,807	17,65
202,072	19,29
202,337	19,56
202,601	19,64
202,866	19,94
203,13	22,86
203,395	21,52
203,659	22,86
203,924	21,16
204,189	23,44
204,453	23,37
204,717	24,92
204,982	24,3
205,246	24,99
205,511	26,88
205,775	25,27
206,04	28,06
206,304	29,14
206,568	31,19
206,833	31,73
207,097	31,94
207,361	33
207,626	36,42
207,89	37,26
208,154	37,51
208,419	39,11
208,683	40,35
208,947	42,45
209,211	42,03
209,476	41,49
209,74	42,85
210,004	44,61
210,268	45,87
210,532	49,05
210,796	49,07
211,061	48,94
211,325	49,16
211,589	47,27
211,853	47,77
212,117	48,2
212,381	47,89
212,645	48,8
212,909	50,41
213,173	49,3
213,437	49,76
213,701	49,5
213,965	49,55
214,229	45,95
214,493	46,19
214,757	44,29
215,021	43,28
215,285	45,91
215,549	47,61
215,813	44
216,077	42,59
216,34	45,09
216,604	42,76
216,868	42,54
217,132	42,58
217,396	42,29
217,659	43
217,923	39,31
218,187	37,7
218,451	34,6
218,714	33,27
218,978	34,39
219,242	37,13
219,505	36,44
219,769	37,87
220,033	37,36
220,296	38,92
220,56	39,78
220,824	39,73
221,087	40,25
221,351	40,16
221,614	39,23
221,878	40,43
222,142	40,23
222,405	39,68
222,669	41,31
222,932	38,98
223,196	38,94
223,459	35,22
223,722	35,96
223,986	35,81
224,249	34,79
224,513	34,79
224,776	36,64
225,04	37,1
225,303	37,7
225,566	37,46
225,83	37,87
226,093	40,62
226,356	40,26
226,62	39,58
226,883	39,4
227,146	38,18
227,409	36,29
227,673	35,88
227,936	35,98
228,199	35,63
228,462	33,53
228,725	32,63
228,989	30,8
229,252	30,79
229,515	35,12
229,778	34,89
230,041	33,75
230,304	32,93
230,567	33,97
230,83	31,6
231,093	33,58
231,356	33,76
231,619	40,2
231,882	39,61
232,145	40,78
232,408	41,05
232,671	39,95
232,934	39,07
233,197	37,07
233,46	36,59
233,723	37,44
233,986	37,17
234,249	35,38
234,512	37,37
234,775	40,62
235,037	39,95
235,3	41,99
235,563	42,01
235,826	41,94
236,089	43,37
236,351	42,96
236,614	45,25
236,877	45,81
237,14	47,76
237,402	46,47
237,665	41,75
237,928	41,76
238,19	40,08
238,453	41,38
238,716	41,43
238,978	41,67
239,241	41,93
239,503	43,1
239,766	38,99
240,029	38,49
240,291	41,17
240,554	39,69
240,816	39,48
241,079	38,87
241,341	39,06
241,604	36,67
241,866	34,43
242,129	34,91
242,391	36,87
242,653	34,59
242,916	34,11
243,178	33,55
243,441	32,88
243,703	33,57
243,965	32,65
244,228	32,99
244,49	33,31
244,752	33,11
245,015	34,51
245,277	35,19
245,539	34,89
245,801	35,34
246,064	35,02
246,326	33,91
246,588	34,17
246,85	35,45
247,112	35,63
247,374	36,26
247,637	38,44
247,899	37,25
248,161	37,64
248,423	34,54
248,685	35,97
248,947	36,11
249,209	36,7
249,471	36,9
249,733	38,79
249,995	38,32
250,257	37,13
250,519	36,15
250,781	40,45
251,043	39,52
251,305	41,17
251,567	41,52
251,829	40,73
252,091	41,48
252,353	37,47
252,615	37,24
252,876	35,04
253,138	32,45
253,4	30,47
253,662	32,41
253,924	34,72
254,185	35,49
254,447	35,8
254,709	35
254,971	35,91
255,232	37,55
255,494	36,39
255,756	33,65
256,017	34,76
256,279	33,85
256,541	34,79
256,802	36,21
257,064	36,35
257,326	34,92
257,587	36,5
257,849	36,05
258,11	38,62
258,372	40,37
258,633	41,16
258,895	39,61
259,156	38,8
259,418	37,72
259,679	36,07
259,941	35,52
260,202	34,95
260,464	37,69
260,725	37,66
260,987	37,5
261,248	37,11
261,509	38,3
261,771	36,75
262,032	38,41
262,293	37,9
262,555	37,96
262,816	36,27
263,077	35,23
263,338	32,67
263,6	32,81
263,861	33,2
264,122	32,94
264,383	34,82
264,645	35,34
264,906	33,17
265,167	33,91
265,428	34,15
265,689	34,84
265,95	33,79
266,211	35,41
266,473	35,89
266,734	33,04
266,995	30,32
267,256	31,5
267,517	32,6
267,778	35,03
268,039	36,21
268,3	36,52
268,561	33,79
268,822	36,72
269,083	35,45
269,344	34,45
269,604	32,44
269,865	32,71
270,126	28,47
270,387	30,37
270,648	32,25
270,909	33,43
271,17	32
271,43	30,32
271,691	28,58
271,952	28,14
272,213	29,03
272,473	26,94
272,734	27,51
272,995	28,25
273,256	28,04
273,516	29,95
273,777	28,16
274,038	30,3
274,298	26,65
274,559	26
274,82	29,67
275,08	31,02
275,341	31,85
275,601	30,56
275,862	29,15
276,122	28,22
276,383	28,63
276,643	30,5
276,904	29,2
277,164	32,71
277,425	32,99
277,685	37,95
277,946	38,01
278,206	39,49
278,467	40,04
278,727	39,33
278,987	38,42
279,248	38,5
279,508	39,43
279,768	41,17
280,029	41,42
280,289	39,69
280,549	39,07
280,81	37,84
281,07	37,63
281,33	40,37
281,59	39,34
281,851	42
282,111	41,73
282,371	42,06
282,631	42,75
282,891	41,37
283,151	40,92
283,412	39,8
283,672	40,4
283,932	40,65
284,192	41,77
284,452	40,76
284,712	37,89
284,972	36,54
285,232	34,31
285,492	37,09
285,752	34,91
286,012	39,42
286,272	40,54
286,532	38,04
286,792	38,82
287,052	40,46
287,312	39,96
287,571	40,18
287,831	40,09
288,091	38,32
288,351	37,33
288,611	40,18
288,871	40,34
289,13	41,24
289,39	37,11
289,65	39,02
289,91	35,29
290,17	36,55
290,429	38,35
290,689	36,27
290,949	34,39
291,208	35,01
291,468	37,26
291,728	38,5
291,987	39,44
292,247	39,56
292,506	41,14
292,766	44,99
293,026	45,31
293,285	47,62
293,545	50,71
293,804	50,62
294,064	48,03
294,323	45,61
294,583	47,13
294,842	47,1
295,102	47,48
295,361	48,28
295,621	49,14
295,88	49,95
296,139	51,33
296,399	53,59
296,658	50,85
296,917	51,87
297,177	48,86
297,436	49,52
297,695	47,92
297,955	50,87
298,214	50,55
298,473	53,64
298,732	57,14
298,992	60,28
299,251	62,13
299,51	58,95
299,769	60,32
300,028	60,28
300,287	59,58
300,547	60,57
300,806	57,7
301,065	59,25
301,324	59,68
301,583	55,74
301,842	52,44
302,101	51,26
302,36	51,87
302,619	51,75
302,878	52,85
303,137	50,85
303,396	52,3
303,655	52,99
303,914	51,89
304,173	50,59
304,432	50,2
304,691	53,28
304,95	50,81
305,208	54,91
305,467	55,92
305,726	55,83
305,985	56,74
306,244	57,69
306,503	55,57
306,761	54,06
307,02	52,44
307,279	52,56
307,537	53,35
307,796	50,64
308,055	52,26
308,314	63,38
308,572	82,23
308,831	113,11
309,09	164,23
309,348	223,61
309,607	278,98
309,865	330,34
310,124	367,46
310,382	389,01
310,641	399,86
310,9	404,5
311,158	409,4
311,417	412,82
311,675	415,52
311,933	417,09
312,192	419,4
312,45	421,1
312,709	421,27
312,967	422,78
313,226	423,68
313,484	424,52
313,742	425,12
314,001	424,11
314,259	423,71
314,517	425,82
314,776	427,91
315,034	430,11
315,292	428,96
315,55	430,06
315,809	432,36
316,067	430,83
316,325	421,89
316,583	404,39
316,841	377,48
317,1	328,55
317,358	268,75
317,616	215,94
317,874	169,52
318,132	134,05
318,39	116,81
318,648	107,51
318,906	103,61
319,164	102,46
319,422	100,57
319,68	99,24
319,938	100,88
320,196	102,84
320,454	104,49
320,712	106,33
320,97	108,88
321,228	110,78
321,486	115,36
321,744	118,12
322,002	122,68
322,26	123,77
322,517	125,36
322,775	125,33
323,033	126,89
323,291	130,94
323,549	134,51
323,806	137,47
324,064	141,32
324,322	144,12
324,58	145,46
324,837	149,07
325,095	148,85
325,353	153,32
325,61	157,12
325,868	159,84
326,126	164,34
326,383	165,81
326,641	168,96
326,898	173,55
327,156	176,49
327,413	180,31
327,671	183,8
327,928	187,28
328,186	190,39
328,443	192,9
328,701	197,67
328,958	201,76
329,216	204,04
329,473	203,8
329,731	207,39
329,988	211,52
330,245	222,93
330,503	236,9
330,76	251,01
331,017	268,6
331,275	278,62
331,532	286,64
331,789	290,54
332,047	293,01
332,304	295,52
332,561	298,69
332,818	300,02
333,076	303,97
333,333	307,42
333,59	309,54
333,847	312,71
334,104	314,6
334,361	317,84
334,618	318,5
334,876	318,57
335,133	322,12
335,39	322,27
335,647	326,58
335,904	326,47
336,161	326,84
336,418	329,67
336,675	329
336,932	331,15
337,189	332,87
337,446	336,83
337,703	338,15
337,96	335,2
338,216	330,87
338,473	320,12
338,73	312,89
338,987	302,33
339,244	297,34
339,501	292,42
339,757	292,71
340,014	295,86
340,271	298,87
340,528	300,6
340,785	306,18
341,041	308,16
341,298	308,13
341,555	309,73
341,811	310,91
342,068	310,67
342,325	312,38
342,581	316,78
342,838	320,76
343,094	321,61
343,351	323,8
343,608	322,58
343,864	326,53
344,121	331,25
344,377	332,11
344,634	333,15
344,89	332,91
345,147	334,39
345,403	334,78
345,66	335,58
345,916	339,31
346,172	340,79
346,429	342,23
346,685	342,15
346,942	343,19
347,198	343,2
347,454	345,7
347,711	347,74
347,967	345,58
348,223	346,02
348,48	348,4
348,736	351,84
348,992	353,31
349,248	356,65
349,504	357,67
349,761	358,55
350,017	360,24
350,273	361,83
350,529	362,9
350,785	362,49
351,041	363,38
351,297	366,28
351,554	366,95
351,81	366,22
352,066	364,91
352,322	366
352,578	369,13
352,834	370,47
353,09	371,8
353,346	372,89
353,602	373,16
353,858	373,09
354,114	372,52
354,369	375,58
354,625	377,15
354,881	375,93
355,137	377,31
355,393	378,4
355,649	379,64
355,905	382,39
356,16	383,39
356,416	383,99
356,672	378,65
356,928	380,23
357,183	380,47
357,439	380,57
357,695	381,07
357,951	385,29
358,206	384,1
358,462	382,97
358,718	384,06
358,973	385,63
359,229	386,67
359,484	389,07
359,74	393,81
359,996	397,69
360,251	405,69
360,507	418,1
360,762	493,38
361,018	671,88
361,273	921,18
361,529	1224,28
361,784	1552,15
362,04	1851,09
362,295	2071,53
362,55	2240,99
362,806	2362,12
363,061	2451,29
363,316	2515,53
363,572	2550,38
363,827	2571,52
364,082	2581,02
364,338	2585,97
364,593	2589,63
364,848	2592,35
365,104	2591,65
365,359	2595,13
365,614	2595,91
365,869	2594,5
366,124	2595,31
366,38	2593,93
366,635	2594,16
366,89	2592,97
367,145	2592,92
367,4	2594,52
367,655	2592,45
367,91	2589,87
368,165	2580,91
368,42	2564,67
368,675	2490,43
368,93	2312,68
369,185	2059,08
369,44	1758,15
369,695	1431,19
369,95	1131,51
370,205	908,48
370,46	738,01
370,715	616,87
370,97	528,26
371,225	462,8
371,48	426,84
371,734	406,08
371,989	394,46
372,244	388,32
372,499	385,48
372,754	380,12
373,008	376,6
373,263	372,35
373,518	373,7
373,773	372,24
374,027	371,93
374,282	374,6
374,537	375,52
374,791	378,16
375,046	375,66
375,301	376,23
375,555	377,28
375,81	382,58
376,064	387,9
376,319	396,03
376,573	399,69
376,828	402,58
377,082	413,12
377,337	414,64
377,591	416,56
377,846	421,74
378,1	427,07
378,355	431,11
378,609	433,69
378,863	433,79
379,118	436,19
379,372	436,96
379,627	437,17
379,881	437,73
380,135	438,29
380,389	438,57
380,644	441,7
380,898	442,25
381,152	441,95
381,407	439,1
381,661	438,06
381,915	437,21
382,169	435,03
382,423	431,55
382,677	425,17
382,932	423,59
383,186	419,03
383,44	414,14
383,694	408,63
383,948	400,4
384,202	391,01
384,456	385,74
384,71	378,99
384,964	368,71
385,218	362,57
385,472	356,73
385,726	348,6
385,98	341,73
386,234	335,11
386,488	329,24
386,742	326,62
386,996	322,56
387,249	320,39
387,503	319,38
387,757	316,68
388,011	312,96
388,265	309,32
388,518	305,4
388,772	304,65
389,026	303,07
389,28	299,84
389,533	296,79
389,787	296,13
390,041	292,57
390,295	290,76
390,548	290,06
390,802	290,88
391,055	288,9
391,309	287,06
391,563	283,71
391,816	284,04
392,07	283,97
392,323	283,22
392,577	283,56
392,83	285,22
393,084	289,34
393,337	292,28
393,591	293,41
393,844	294,24
394,098	297,7
394,351	299,73
394,604	300,35
394,858	301,48
395,111	302,75
395,364	299,72
395,618	302,03
395,871	302,98
396,124	304,65
396,378	306,51
396,631	308,69
396,884	309,9
397,137	312,42
397,391	316,97
397,644	317,46
397,897	322,89
398,15	328,2
398,403	334,27
398,657	338,32
398,91	343,8
399,163	353,3
399,416	362,49
399,669	373,26
399,922	393,2
400,175	445,64
400,428	695,71
400,681	1211,93
400,934	1903,27
401,187	2696
401,44	3525,86
401,693	4204,34
401,946	4645,8
402,199	4926,68
402,452	5112,66
402,704	5225,45
402,957	5289,12
403,21	5328,85
403,463	5362,53
403,716	5412,46
403,969	5474,17
404,221	5541,38
404,474	5618,56
404,727	5689,46
404,98	5740,11
405,232	5776,92
405,485	5807,54
405,738	5830,97
405,99	5849,55
406,243	5865,22
406,496	5880,61
406,748	5893,91
407,001	5905,76
407,253	5917,24
407,506	5927,83
407,759	5931,01
408,011	5898,39
408,264	5671,44
408,516	5179,74
408,769	4509,17
409,021	3741,81
409,274	2937,4
409,526	2287,12
409,778	1869,86
410,031	1616,21
410,283	1458,12
410,536	1375,86
410,788	1338,44
411,04	1329,31
411,293	1326,27
411,545	1307,9
411,797	1279,15
412,049	1241,57
412,302	1197,33
412,554	1159,88
412,806	1143,65
413,058	1139,14
413,311	1145,46
413,563	1157,09
413,815	1173,05
414,067	1193,59
414,319	1213,57
414,571	1235,1
414,823	1254,31
415,075	1275,84
415,328	1298,53
415,58	1319,87
415,832	1342,69
416,084	1365,4
416,336	1382,47
416,588	1406,66
416,84	1424,91
417,091	1450,11
417,343	1466,04
417,595	1487,96
417,847	1510,25
418,099	1532,98
418,351	1554,07
418,603	1578,47
418,855	1602,66
419,106	1626,9
419,358	1650,68
419,61	1674,04
419,862	1699,93
420,114	1723,35
420,365	1749,54
420,617	1774,94
420,869	1797,91
421,12	1822,46
421,372	1849,57
421,624	1876,75
421,875	1901,27
422,127	1927,32
422,379	1957,96
422,63	1990,16
422,882	2017,63
423,133	2048,99
423,385	2084,1
423,636	2115,72
423,888	2147,6
424,139	2183,56
424,391	2211,2
424,642	2246,13
424,894	2276,64
425,145	2313,29
425,396	2345,73
425,648	2380,16
425,899	2412,31
426,151	2445,11
426,402	2482,54
426,653	2521,2
426,905	2552,76
427,156	2588,38
427,407	2625,95
427,658	2662,64
427,91	2695,66
428,161	2733,3
428,412	2771,24
428,663	2811,37
428,914	2852,39
429,166	2890,14
429,417	2933,28
429,668	2977,33
429,919	3022,68
430,17	3074,74
430,421	3129,94
430,672	3206,38
430,923	3293,88
431,174	3404,76
431,425	3720,33
431,676	4840,43
431,927	6649,29
432,178	8563,72
432,429	10484,47
432,68	12404,9
432,931	14324,71
433,182	16108,8
433,433	17236,37
433,683	18037,09
433,934	18581,78
434,185	18912,74
434,436	19102,84
434,687	19222,12
434,937	19305,17
435,188	19365,93
435,439	19420,31
435,69	19473,99
435,94	19517,71
436,191	19557,58
436,442	19593,96
436,692	19628,02
436,943	19660,28
437,194	19683,41
437,444	19706,32
437,695	19726,66
437,945	19742,43
438,196	19746,7
438,447	19734,29
438,697	19704,3
438,948	19645,54
439,198	19385,51
439,449	18316,33
439,699	16561,66
439,949	14703,62
440,2	12830,7
440,45	10963,46
440,701	9093,16
440,951	7356,98
441,201	6277,39
441,452	5521,77
441,702	5021,15
441,952	4728,39
442,203	4575,56
442,453	4497,53
442,703	4456,17
442,953	4432,26
443,204	4417,4
443,454	4401,47
443,704	4387,98
443,954	4381,18
444,204	4380,84
444,455	4373,86
444,705	4373,99
444,955	4371,93
445,205	4369,77
445,455	4370,06
445,705	4367,57
445,955	4368,59
446,205	4367,93
446,455	4367,88
446,705	4370,74
446,955	4372,28
447,205	4375,58
447,455	4375,89
447,705	4370,76
447,955	4375,02
448,205	4376,94
448,454	4382,43
448,704	4388,81
448,954	4389,16
449,204	4390,56
449,454	4394,86
449,704	4395,65
449,953	4397,27
450,203	4400,73
450,453	4403,31
450,703	4408,52
450,952	4403,19
451,202	4405,77
451,452	4411,62
451,701	4412,86
451,951	4414,87
452,201	4420,4
452,45	4420,4
452,7	4420,52
452,949	4427,72
453,199	4429,52
453,448	4429,31
453,698	4434,91
453,947	4433,85
454,197	4431,48
454,446	4430,47
454,696	4434,21
454,945	4433,99
455,195	4432,6
455,444	4436,11
455,693	4438,33
455,943	4430,73
456,192	4426,98
456,442	4422,74
456,691	4422,13
456,94	4420,44
457,189	4414,28
457,439	4416,55
457,688	4416,62
457,937	4411,08
458,186	4404,22
458,436	4394,75
458,685	4394,49
458,934	4387,85
459,183	4378,99
459,432	4374,86
459,681	4366,21
459,93	4353,86
460,179	4345,9
460,429	4339,93
460,678	4331,63
460,927	4323,34
461,176	4311,51
461,425	4297,85
461,674	4294,44
461,923	4291,64
462,172	4283,2
462,42	4267,61
462,669	4258,06
462,918	4244,15
463,167	4233,78
463,416	4220,46
463,665	4220,63
463,914	4209,06
464,162	4201,74
464,411	4188,26
464,66	4178,12
464,909	4167,76
465,158	4155,39
465,406	4138,7
465,655	4129,36
465,904	4117,34
466,152	4103,7
466,401	4091,11
466,65	4079,41
466,898	4065,77
467,147	4048,69
467,395	4032,11
467,644	4021,85
467,893	4003,84
468,141	3992,83
468,39	3972,84
468,638	3954,83
468,887	3941,79
469,135	3926,52
469,384	3908,14
469,632	3890,35
469,88	3875,51
470,129	3868,76
470,377	3853,85
470,626	3845,01
470,874	3833,09
471,122	3820,8
471,371	3797,1
471,619	3784,3
471,867	3770,26
472,115	3757,86
472,364	3746,4
472,612	3735,17
472,86	3720,88
473,108	3713,43
473,356	3703,77
473,605	3695,55
473,853	3689,13
474,101	3678,84
474,349	3670,99
474,597	3668,6
474,845	3665,2
475,093	3665,03
475,341	3660,3
475,589	3664,59
475,837	3667,86
476,085	3678,13
476,333	3690,92
476,581	3704,82
476,829	3724,81
477,077	3748,55
477,325	3778,21
477,573	3813,59
477,821	3852,3
478,069	3901,7
478,317	3963,15
478,564	4034,62
478,812	4116,8
479,06	4218,03
479,308	4335,43
479,555	4472,32
479,803	4639,3
480,051	4830,52
480,299	5045,92
480,546	5292,52
480,794	5562,92
481,042	5858,36
481,289	6188,63
481,537	6553,11
481,784	6955,94
482,032	7404,89
482,28	7885,81
482,527	8415,52
482,775	8968,98
483,022	9562,91
483,27	10167,51
483,517	10790,55
483,765	11428,78
484,012	12045,42
484,259	12657,72
484,507	13253,71
484,754	13840,76
485,002	14404,98
485,249	14927,99
485,496	15424,27
485,744	15908,63
485,991	16350,51
486,238	16759,39
486,486	17138,96
486,733	17498,34
486,98	17809,82
487,227	18091,26
487,474	18338,1
487,722	18564,24
487,969	18757,52
488,216	18914,95
488,463	19039,01
488,71	19120,34
488,957	19158,3
489,204	19145,85
489,451	19083
489,699	18963,75
489,946	18794,19
490,193	18563,83
490,44	18303,72
490,687	17989,35
490,934	17650,94
491,18	17281,18
491,427	16883,41
491,674	16499,48
491,921	16105,75
492,168	15712,55
492,415	15315,36
492,662	14928,31
492,909	14567,66
493,155	14219,63
493,402	13868,82
493,649	13537,85
493,896	13224,13
494,142	12923,99
494,389	12622,11
494,636	12336,91
494,883	12051,66
495,129	11767,3
495,376	11469,55
495,623	11170,75
495,869	10874,46
496,116	10575,32
496,362	10288,1
496,609	10002,61
496,855	9730,26
497,102	9459,39
497,348	9192,86
497,595	8934,47
497,841	8684,35
498,088	8432,02
498,334	8189,45
498,581	7946,5
498,827	7711,96
499,074	7484,44
499,32	7258,27
499,566	7039,96
499,813	6830,04
500,059	6621,01
500,305	6421,13
500,552	6222,27
500,798	6028,03
501,044	5843,61
501,29	5662,67
501,537	5485,61
501,783	5311,16
502,029	5142,7
502,275	4980,18
502,521	4826,38
502,767	4679,84
503,013	4542,04
503,26	4409,56
503,506	4279,56
503,752	4161,47
503,998	4044,69
504,244	3937,78
504,49	3833,42
504,736	3741,26
504,982	3652,54
505,228	3571,64
505,474	3494,19
505,72	3423,35
505,966	3356,23
506,211	3299,09
506,457	3240,93
506,703	3186,6
506,949	3135,91
507,195	3088,2
507,441	3041,19
507,686	3002,87
507,932	2962,25
508,178	2928,84
508,424	2895,43
508,669	2863,16
508,915	2834,37
509,161	2810,61
509,406	2787,62
509,652	2765,37
509,898	2748,32
510,143	2728,77
510,389	2710,65
510,634	2691,6
510,88	2678,38
511,125	2664,5
511,371	2648,69
511,616	2634,79
511,862	2615,32
512,107	2598,02
512,353	2581,75
512,598	2566,17
512,844	2547,92
513,089	2533,67
513,335	2517,37
513,58	2502,03
513,825	2486,3
514,071	2470,68
514,316	2455,1
514,561	2439,68
514,806	2422,6
515,052	2409,03
515,297	2393,11
515,542	2378,2
515,787	2363,76
516,033	2349,95
516,278	2332,34
516,523	2316,14
516,768	2300,67
517,013	2280,82
517,258	2263,58
517,503	2246,58
517,748	2231,36
517,993	2212,4
518,238	2192,76
518,483	2176,23
518,728	2159,55
518,973	2142,3
519,218	2126,06
519,463	2112,06
519,708	2095,04
519,953	2079,5
520,198	2065,47
520,443	2054,38
520,688	2039,4
520,933	2023,9
521,177	2007,85
521,422	1990,99
521,667	1980,13
521,912	1965,83
522,157	1951,07
522,401	1941,76
522,646	1929,97
522,891	1920,18
523,135	1909,98
523,38	1898,03
523,625	1888,07
523,869	1883,39
524,114	1880,56
524,358	1873,4
524,603	1870,8
524,848	1865,81
525,092	1860,69
525,337	1858,79
525,581	1858,12
525,826	1860,31
526,07	1858,44
526,315	1857,79
526,559	1856,05
526,803	1856,03
527,048	1861,1
527,292	1864,64
527,537	1868,33
527,781	1873,68
528,025	1876,28
528,269	1886,07
528,514	1897,01
528,758	1912,33
529,002	1936,04
529,247	1968,51
529,491	2009,13
529,735	2067,36
529,979	2131,17
530,223	2202,38
530,467	2271,36
530,712	2342,16
530,956	2412,9
531,2	2477,22
531,444	2540,32
531,688	2607,16
531,932	2676,56
532,176	2753,83
532,42	2838,28
532,664	2932,59
532,908	3037,98
533,152	3166,56
533,396	3317,21
533,64	3501,24
533,884	3720,85
534,128	3984,43
534,371	4284,04
534,615	4622,01
534,859	4991,56
535,103	5392,95
535,347	5826,24
535,59	6310,98
535,834	6847,17
536,078	7475,8
536,322	8197,26
536,565	9050,75
536,809	10042,39
537,053	11205,36
537,296	12595,07
537,54	14244,07
537,784	16053,43
538,027	17915,25
538,271	19792,34
538,514	21674,71
538,758	23563,05
539,001	25450,25
539,245	27332,45
539,488	29213,46
539,732	31086,53
539,975	32952,76
540,219	34809,43
540,462	36652,77
540,706	38473,89
540,949	40271,93
541,192	42037,36
541,436	43767,38
541,679	45455,14
541,922	47106,44
542,166	48714,47
542,409	50294,32
542,652	51840,38
542,895	53352,84
543,139	54814,61
543,382	56219,08
543,625	57531,36
543,868	58748,39
544,111	59825,26
544,354	60752,3
544,598	61502,37
544,841	62009,3
545,084	62247,51
545,327	62319,87
545,57	62340,73
545,813	62344,41
546,056	62289,11
546,299	61763,48
546,542	61018,93
546,785	60187,06
547,028	59282,93
547,271	58297,85
547,514	57238,45
547,756	56118,7
547,999	54932,79
548,242	53692,17
548,485	52392,99
548,728	51052,32
548,971	49662,78
549,213	48241,31
549,456	46771,11
549,699	45268,67
549,942	43728,1
550,184	42159,23
550,427	40559,78
550,67	38935,53
550,912	37277,05
551,155	35603,03
551,398	33901
551,64	32175,46
551,883	30431,34
552,125	28667,8
552,368	26886,13
552,61	25089,79
552,853	23281,7
553,095	21461,76
553,338	19632,18
553,58	17848,82
553,823	16526,26
554,065	15416,92
554,308	14386,59
554,55	13424,3
554,792	12532,07
555,035	11711,11
555,277	10947,1
555,519	10244,83
555,762	9592,7
556,004	8997,02
556,246	8435,92
556,488	7922,9
556,731	7436,65
556,973	6998,66
557,215	6588,24
557,457	6215,58
557,699	5871,28
557,941	5553,16
558,183	5258,57
558,426	4999,32
558,668	4749,9
558,91	4531,79
559,152	4336,88
559,394	4157,02
559,636	3996,69
559,878	3852,61
560,12	3719,11
560,362	3598,83
560,604	3487,59
560,845	3384,32
561,087	3288,76
561,329	3204,53
561,571	3120,91
561,813	3045,6
562,055	2971,38
562,297	2908,14
562,538	2848,26
562,78	2792,13
563,022	2737,78
563,264	2688,87
563,505	2640,65
563,747	2598,77
563,989	2556,71
564,23	2521,18
564,472	2485,31
564,714	2455,61
564,955	2426,99
565,197	2396,7
565,438	2370,48
565,68	2347,95
565,921	2321,65
566,163	2301,15
566,404	2273,85
566,646	2247,78
566,887	2224,22
567,129	2200,69
567,37	2176,64
567,612	2154,84
567,853	2131,93
568,094	2112,12
568,336	2091,53
568,577	2073,02
568,818	2053,32
569,06	2035,06
569,301	2018,17
569,542	2005,09
569,783	1992,27
570,025	1977,41
570,266	1963,95
570,507	1954,07
570,748	1942,6
570,989	1934,41
571,23	1926,7
571,472	1921,49
571,713	1915,95
571,954	1917,02
572,195	1918,12
572,436	1925,4
572,677	1948,3
572,918	2031,03
573,159	2211,87
573,4	2466,82
573,641	2780,43
573,882	3129,42
574,123	3482,04
574,364	3765,67
574,604	4005,43
574,845	4223,99
575,086	4482,08
575,327	4799,97
575,568	5158,25
575,809	5540,77
576,049	5938,77
576,29	6325,82
576,531	6684,98
576,771	7037,73
577,012	7383,21
577,253	7730,28
577,494	8074,13
577,734	8397,54
577,975	8696,22
578,215	8992,93
578,456	9296,63
578,697	9616,41
578,937	9953,33
579,178	10314,57
579,418	10694,38
579,659	11095,3
579,899	11516,85
580,14	11941,46
580,38	12319,03
580,62	12607,4
580,861	12821,3
581,101	12972
581,342	13090,43
581,582	13193,52
581,822	13356,34
582,063	13555,04
582,303	13762,83
582,543	13920,42
582,783	14010,58
583,024	14061,39
583,264	14117,5
583,504	14209,72
583,744	14379,78
583,984	14619,72
584,224	14885,2
584,465	15161,61
584,705	15386,61
584,945	15558,97
585,185	15692,98
585,425	15810,04
585,665	15884,34
585,905	15920,53
586,145	15911,37
586,385	15859,32
586,625	15764,82
586,865	15629,13
587,105	15460,81
587,345	15262,52
587,585	15049,24
587,824	14828,69
588,064	14602,13
588,304	14383,8
588,544	14187,02
588,784	14015,51
589,024	13883,91
589,263	13807,9
589,503	13777,18
589,743	13800,42
589,982	13850,22
590,222	13913,44
590,462	13952,03
590,701	13925,66
590,941	13815,34
591,181	13593,02
591,42	13299,68
591,66	12956,01
591,899	12579,25
592,139	12226,35
592,378	11914,6
592,618	11640,08
592,857	11397,14
593,097	11193,44
593,336	11008,25
593,576	10848,24
593,815	10709,74
594,055	10591,6
594,294	10486,25
594,533	10396,24
594,773	10315,14
595,012	10251,43
595,251	10199,35
595,491	10169,94
595,73	10157,79
595,969	10149,99
596,208	10135,5
596,447	10110,03
596,687	10033,75
596,926	9912,98
597,165	9736,36
597,404	9531,67
597,643	9298,73
597,882	9065,79
598,121	8847,35
598,36	8641,91
598,599	8466,77
598,838	8303,92
599,077	8157,84
599,316	8027,56
599,555	7910,73
599,794	7803,05
600,033	7713,32
600,272	7629,46
600,511	7548,34
600,75	7480,15
600,989	7418,23
601,228	7357,13
601,466	7298
601,705	7242,64
601,944	7183,48
602,183	7121,4
602,422	7042,07
602,66	6948,94
602,899	6835,71
603,138	6709,08
603,376	6566,25
603,615	6412,79
603,854	6250,99
604,092	6105,79
604,331	5986,01
604,569	5895,59
604,808	5840
605,047	5833,21
605,285	5878,57
605,524	5987,87
605,762	6158,56
606	6412,56
606,239	6767,66
606,477	7254,76
606,716	7919,83
606,954	8863,51
607,193	10206,18
607,431	11974,15
607,669	13826,67
607,908	15687,55
608,146	17552,29
608,384	19414,97
608,622	21279,55
608,861	23138,9
609,099	24998,49
609,337	26856,53
609,575	28711,02
609,813	30563,29
610,052	32412,54
610,29	34253,91
610,528	36086,19
610,766	37913,23
611,004	39732,72
611,242	41542,38
611,48	43195,15
611,718	44395,32
611,956	45353,84
612,194	46187,88
612,432	46894,53
612,67	47475,25
612,908	47927,64
613,146	48252,9
613,384	48437,71
613,621	48479,42
613,859	48349,16
614,097	47997,13
614,335	47345,41
614,573	46267,57
614,811	44734,95
615,048	43097,55
615,286	41437,88
615,524	39757,02
615,761	38069,46
615,999	36370,88
616,237	34668,51
616,474	32963,23
616,712	31267,28
616,95	29569,29
617,187	27878,75
617,425	26194,99
617,662	24513,67
617,9	22837,64
618,137	21162,45
618,375	19486,36
618,612	17813,27
618,85	16280,75
619,087	15186,15
619,325	14321,21
619,562	13568,42
619,799	12920,9
620,037	12376,57
620,274	11921,81
620,511	11558,23
620,749	11270,52
620,986	11048,3
621,223	10874,5
621,461	10764,55
621,698	10691,07
621,935	10655,45
622,172	10651,07
622,409	10671,96
622,647	10710,06
622,884	10761,32
623,121	10818,83
623,358	10884,64
623,595	10943,64
623,832	11002,48
624,069	11043,74
624,306	11079,03
624,543	11100
624,78	11104,31
625,017	11098,09
625,254	11078,81
625,491	11047,37
625,728	11015,76
625,965	10980,78
626,202	10949,04
626,438	10917
626,675	10903,95
626,912	10908,81
627,149	10948,58
627,386	11031,18
627,622	11151,64
627,859	11297,48
628,096	11444,79
628,333	11569,57
628,569	11663,45
628,806	11699,72
629,043	11683,52
629,279	11616,59
629,516	11507,38
629,752	11357,86
629,989	11179,21
630,225	10973,35
630,462	10745,37
630,699	10500,97
630,935	10251,31
631,171	9990,01
631,408	9730,17
631,644	9470,07
631,881	9214,51
632,117	8961,79
632,354	8716,75
632,59	8476,52
632,826	8244,77
633,063	8011,52
633,299	7777,32
633,535	7543,71
633,771	7305,46
634,008	7047,07
634,244	6760,47
634,48	6430,29
634,716	6050,98
634,953	5628,6
635,189	5175,53
635,425	4715,42
635,661	4274,56
635,897	3865,51
636,133	3505,79
636,369	3195,56
636,605	2930,66
636,841	2708,93
637,077	2525,55
637,313	2370,58
637,549	2243,3
637,785	2139,58
638,021	2053,17
638,257	1983,13
638,493	1930,1
638,729	1882,25
638,965	1845,57
639,2	1810,22
639,436	1780,29
639,672	1751,27
639,908	1725,05
640,144	1706,56
640,379	1688,95
640,615	1670,07
640,851	1655,34
641,086	1642,04
641,322	1627,55
641,558	1615,99
641,793	1608,95
642,029	1599,31
642,264	1595,31
642,5	1590,65
642,736	1583,48
642,971	1580,07
643,207	1576,52
643,442	1573,35
643,678	1572,04
643,913	1572,06
644,148	1573,27
644,384	1576,27
644,619	1577,47
644,855	1581,92
645,09	1583,77
645,325	1587,47
645,561	1592,19
645,796	1596,05
646,031	1606,75
646,266	1619,44
646,502	1645,32
646,737	1689,74
646,972	1749,79
647,207	1826,04
647,442	1907,29
647,678	1993,64
647,913	2081,89
648,148	2160,64
648,383	2227,37
648,618	2286,29
648,853	2336,63
649,088	2382,7
649,323	2426,34
649,558	2466,25
649,793	2501,62
650,028	2539
650,263	2569,85
650,498	2603,47
650,733	2631,05
650,968	2654,6
651,202	2675,61
651,437	2690,18
651,672	2699,92
651,907	2711,76
652,142	2720,36
652,376	2728,45
652,611	2733,1
652,846	2735,98
653,081	2735,23
653,315	2729,74
653,55	2718,27
653,785	2694,62
654,019	2656,07
654,254	2599,11
654,488	2529,32
654,723	2450,14
654,958	2367,38
655,192	2283,22
655,427	2205,74
655,661	2139,22
655,896	2079,71
656,13	2024,81
656,364	1968,8
656,599	1916,8
656,833	1871,29
657,068	1822,95
657,302	1773,8
657,536	1723,2
657,771	1678,48
658,005	1638,57
658,239	1605,35
658,474	1578,45
658,708	1565,17
658,942	1566,68
659,176	1575,77
659,41	1592,43
659,645	1616,45
659,879	1642,98
660,113	1663,08
660,347	1679,75
660,581	1692,83
660,815	1704,5
661,049	1710,76
661,283	1710,17
661,517	1708,19
661,751	1701,4
661,985	1689,88
662,219	1676,72
662,453	1662,31
662,687	1647,64
662,921	1631,53
663,155	1619,6
663,389	1606,06
663,622	1598,02
663,856	1593,02
664,09	1582,21
664,324	1579,75
664,558	1578,45
664,791	1578,85
665,025	1577,14
665,259	1576,04
665,492	1569,51
665,726	1561,42
665,96	1542,47
666,193	1508,81
666,427	1468,93
666,661	1422,02
666,894	1370,92
667,128	1320,77
667,361	1275,81
667,595	1235,87
667,828	1199,05
668,062	1166,7
668,295	1138,25
668,529	1115,71
668,762	1094,95
668,995	1077,17
669,229	1063,72
669,462	1051,33
669,695	1041,48
669,929	1030,81
670,162	1022,94
670,395	1013,11
670,629	1006,09
670,862	999,23
671,095	986,7
671,328	978,76
671,561	966,35
671,795	956,34
672,028	948,05
672,261	938,41
672,494	930,36
672,727	918,13
672,96	907,97
673,193	897,21
673,426	893,48
673,659	886,11
673,892	877,21
674,125	868,14
674,358	859,17
674,591	852
674,824	844,51
675,057	836,16
675,29	826,99
675,523	822,19
675,755	815,92
675,988	812,52
676,221	809,55
676,454	806,83
676,687	805,96
676,919	805,07
677,152	805,5
677,385	808,14
677,617	811,52
677,85	816,17
678,083	818,6
678,315	825,71
678,548	827,41
678,78	829,4
679,013	832,83
679,246	835,87
679,478	838,33
679,711	837,58
679,943	843,06
680,175	842,64
680,408	847,8
680,64	844,74
680,873	846,19
681,105	849,42
681,338	855,05
681,57	855,63
681,802	858,07
682,034	861,1
682,267	866,98
682,499	872,43
682,731	875,18
682,964	880,55
683,196	887,15
683,428	895,95
683,66	910,58
683,892	933,5
684,124	960,05
684,356	994,88
684,589	1029,68
684,821	1066,87
685,053	1102,45
685,285	1136,66
685,517	1168,03
685,749	1194,35
685,981	1217,98
686,213	1233,38
686,445	1245,06
686,676	1251,22
686,908	1254,67
687,14	1254,45
687,372	1257,77
687,604	1254,56
687,836	1252,53
688,068	1248,42
688,299	1242,77
688,531	1231,81
688,763	1227,12
688,995	1215,8
689,226	1208,15
689,458	1196,31
689,69	1187,7
689,921	1183,19
690,153	1184,21
690,384	1190,42
690,616	1196,74
690,848	1199,92
691,079	1193,26
691,311	1177,48
691,542	1150,25
691,774	1113,48
692,005	1073,61
692,237	1033,56
692,468	989,58
692,699	946,01
692,931	906,35
693,162	868,97
693,393	837,34
693,625	807,09
693,856	783,35
694,087	764,12
694,319	746,41
694,55	725,91
694,781	708,78
695,012	695,44
695,243	681,09
695,475	669,57
695,706	660,21
695,937	651,62
696,168	644,08
696,399	633,33
696,63	625,33
696,861	613,4
697,092	600,6
697,323	579,38
697,554	548,75
697,785	514,43
698,016	478,28
698,247	440,75
698,478	411,2
698,709	386,09
698,94	368,67
699,171	351,64
699,401	335
699,632	326,67
699,863	318,12
700,094	313,88
700,325	316,33
700,555	321,35
700,786	330,37
701,017	340,93
701,247	352,76
701,478	367,85
701,709	387,16
701,939	407,1
702,17	433,84
702,401	467,23
702,631	506,53
702,862	554,57
703,092	612,47
703,323	688,37
703,553	777,65
703,784	878,96
704,014	990,3
704,244	1101,87
704,475	1213,59
704,705	1324,68
704,936	1428,96
705,166	1533,22
705,396	1647,99
705,627	1771,19
705,857	1907,67
706,087	2047,39
706,317	2185,27
706,548	2314,44
706,778	2423,48
707,008	2518,13
707,238	2593,13
707,468	2653,13
707,698	2702,95
707,928	2748,21
708,158	2788,72
708,389	2833,93
708,619	2886,76
708,849	2949,25
709,079	3025,93
709,309	3102,3
709,539	3181
709,768	3247,36
709,998	3297,55
710,228	3322,86
710,458	3319,08
710,688	3287,19
710,918	3233,49
711,148	3159,68
711,378	3075,03
711,607	2983,52
711,837	2889,63
712,067	2797,14
712,297	2696,89
712,526	2587,78
712,756	2466,85
712,986	2328,38
713,215	2184,45
713,445	2042,47
713,674	1909,84
713,904	1794,72
714,134	1696,64
714,363	1616,02
714,593	1545,18
714,822	1481,53
715,052	1422,28
715,281	1365,97
715,511	1302,78
715,74	1230,7
715,969	1145,33
716,199	1044,35
716,428	936,15
716,657	821,02
716,887	714,45
717,116	612,72
717,345	524,76
717,575	450,43
717,804	390,4
718,033	338,7
718,262	297,03
718,492	264,16
718,721	237,98
718,95	216,46
719,179	198,58
719,408	190,15
719,637	177,55
719,866	169,39
720,095	164,22
720,324	159,42
720,553	153,82
720,782	147,68
721,011	145,01
721,24	141,11
721,469	137,43
721,698	135,74
721,927	133,73
722,156	130,47
722,385	127,68
722,613	128,46
722,842	126,61
723,071	128,06
723,3	128,05
723,529	127,46
723,757	127,37
723,986	122,65
724,215	120,24
724,443	119,98
724,672	120,34
724,901	119,9
725,129	119,79
725,358	120,8
725,586	116,62
725,815	115,28
726,043	113,11
726,272	112,53
726,5	110,78
726,729	111,79
726,957	107,94
727,186	106,24
727,414	107,25
727,642	108,21
727,871	109,05
728,099	108,46
728,327	108,17
728,556	109,12
728,784	107,78
729,012	106,36
729,241	107,59
729,469	106,54
729,697	103,27
729,925	102,7
730,153	99,16
730,381	98,39
730,61	96,95
730,838	92,04
731,066	91,93
731,294	91,51
731,522	87,81
731,75	84,09
731,978	81,88
732,206	79,99
732,434	77,75
732,662	78,76
732,89	76,02
733,118	75,83
733,346	74,89
733,573	74,37
733,801	74,71
734,029	80,3
734,257	79,25
734,485	79,08
734,712	79,38
734,94	78,56
735,168	81,32
735,396	81,1
735,623	80,03
735,851	81,71
736,078	83,84
736,306	85,02
736,534	85,21
736,761	86,65
736,989	86,24
737,216	86,47
737,444	85,46
737,671	86,41
737,899	91,42
738,126	90,78
738,354	90,53
738,581	92,45
738,809	95,04
739,036	95,39
739,263	97,92
739,491	99,94
739,718	102,94
739,945	110,36
740,173	113,88
740,4	116,53
740,627	117,64
740,854	118,85
741,081	117,46
741,309	118,78
741,536	117,85
741,763	117,41
741,99	118,63
742,217	117,56
742,444	117,74
742,671	118,3
742,898	116,62
743,125	113,47
743,352	111,37
743,579	111,74
743,806	111,54
744,033	113,95
744,26	114,98
744,487	114,41
744,714	115,41
744,941	114,4
745,167	117,3
745,394	117,13
745,621	114,59
745,848	112,9
746,075	113,07
746,301	113,1
746,528	111,26
746,755	106,59
746,981	104,05
747,208	103,02
747,435	103,03
747,661	102,51
747,888	102,1
748,114	100,56
748,341	102,24
748,567	104,3
748,794	103,03
749,02	102,38
749,247	100,71
749,473	100,55
749,7	99,25
749,926	100,13
750,152	103,75
750,379	103,99
750,605	103,5
750,831	102,06
751,058	98,91
751,284	95,57
751,51	96,42
751,737	96,75
751,963	95,08
752,189	93,2
752,415	90,65
752,641	89,67
752,867	88,84
753,094	87,83
753,32	85,48
753,546	84,62
753,772	86,54
753,998	82,62
754,224	80,38
754,45	77,1
754,676	73,73
754,902	71,1
755,128	69,24
755,354	66,73
755,579	63,71
755,805	62,87
756,031	61,1
756,257	58,52
756,483	54,62
756,709	53,77
756,934	51,04
757,16	46,71
757,386	45,05
757,612	42,4
757,837	39,74
758,063	40,66
758,289	42,8
758,514	40,57
758,74	36,11
758,965	33,45
759,191	33,54
759,416	34,69
759,642	37,78
759,868	38,66
760,093	42,35
760,318	45,47
760,544	49,94
760,769	54,24
760,995	61,04
761,22	66,14
761,445	72,65
761,671	77,54
761,896	82,26
762,121	83,93
762,347	84,98
762,572	86,11
762,797	87,18
763,022	87,72
763,248	91,45
763,473	94,17
763,698	93,59
763,923	95,18
764,148	96,3
764,373	96,24
764,598	97,8
764,823	99,54
765,048	97,51
765,273	93,94
765,498	93,93
765,723	94,45
765,948	94,19
766,173	93,38
766,398	94,79
766,623	91,09
766,848	88,58
767,073	83,84
767,298	78,19
767,522	73,25
767,747	67,82
767,972	61
768,197	56,18
768,421	49,57
768,646	43,52
768,871	40,01
769,095	39,64
769,32	40,81
769,545	39,66
769,769	41,68
769,994	44,27
770,218	42,91
770,443	44,41
770,667	46,29
770,892	45,95
771,116	47,57
771,341	49,64
771,565	49,23
771,79	52,06
772,014	51,33
772,238	52,33
772,463	53,59
772,687	54,84
772,911	55,18
773,136	54,33
773,36	54,72
773,584	56,03
773,808	54,63
774,033	55,18
774,257	56,35
774,481	55,22
774,705	54,94
774,929	54,14
775,153	53,5
775,377	55,62
775,602	55,72
775,826	55,03
776,05	54,2
776,274	50,93
776,498	48,42
776,722	44,24
776,945	43,14
777,169	41,74
777,393	38,42
777,617	35,88
777,841	35,63
778,065	33,48
778,289	30,71
778,512	29,69
778,736	26,37
778,96	26
779,184	26,35
779,407	24,63
779,631	24,53
779,855	23,76
780,078	23,46
780,302	20,58
780,526	18,79
780,749	19,36
780,973	19,2
781,196	19,65
781,42	18,74
781,643	17,57
781,867	18,91
782,09	17,41
782,314	15,56
782,537	15,11
782,76	14,25
782,984	15,18
783,207	14,17
783,431	14,08
783,654	12,84
783,877	9,47
784,1	8,22
784,324	7,37
784,547	7,57
784,77	5,27
784,993	4,27
785,216	3,06
785,44	2,6
785,663	1,53
785,886	3,2
786,109	3,5
786,332	3,51
786,555	3,77
786,778	5,42
787,001	6,11
787,224	8,23
787,447	9,54
787,67	11,49
787,893	12,58
788,116	12,33
788,339	12,36
788,561	11,68
788,784	8,6
789,007	8,48
789,23	7,1
789,453	6,44
789,675	5,38
789,898	3,97
790,121	2,67
790,344	3,54
790,566	5,1
790,789	6,43
791,012	6,16
791,234	9,73
791,457	13,05
791,679	14,7
791,902	15,74
792,124	17,69
792,347	18,34
792,569	20
792,792	19,05
793,014	22,13
793,237	24,73
793,459	24,88
793,681	25,11
793,904	26,23
794,126	25,71
794,348	25,05
794,571	26,49
794,793	25,18
795,015	25,44
795,237	26,99
795,46	28,07
795,682	29,75
795,904	30,55
796,126	30,59
796,348	31,82
796,57	35,3
796,792	36,25
797,014	39,75
797,237	40,5
797,459	43,33
797,681	44,67
797,903	45,44
798,124	46,72
798,346	56,57
798,568	59,67
798,79	64,05
799,012	65,74
799,234	66,14
799,456	67,84
799,678	68,77
799,899	66,2
800,121	63,19
800,343	63,62
800,565	64,85
800,786	64,31
801,008	65,6
801,23	65,83
801,451	65,7
801,673	65,25
801,895	64,97
802,116	66,3
802,338	66,95
802,559	66,94
802,781	65,85
803,002	67,21
803,224	68,28
803,445	65,32
803,667	65
803,888	64,16
804,109	64,69
804,331	61,98
804,552	60,5
804,773	60,33
804,995	55,42
805,216	42,36
805,437	36,93
805,658	31,59
805,88	27,43
806,101	27,28
806,322	25,55
806,543	23,99
806,764	22,26
806,985	25,5
807,207	25,83
807,428	26,17
807,649	24,13
807,87	24,82
808,091	28,24
808,312	32,84
808,533	40,62
808,754	47,62
808,975	51,29
809,195	57,82
809,416	62,74
809,637	66,21
809,858	68,01
810,079	68,93
810,3	73,76
810,52	75,91
810,741	76,02
810,962	76,96
811,183	78,58
811,403	81,16
811,624	82,02
811,845	83,92
812,065	85,45
812,286	87,68
812,506	88,57
812,727	90,33
812,948	91,33
813,168	92,51
813,389	91,07
813,609	92,55
813,83	88,82
814,05	86,18
814,27	84,82
814,491	86,24
814,711	82,89
814,931	77,87
815,152	71,92
815,372	65,5
815,592	59,45
815,813	53,2
816,033	46,65
816,253	43,19
816,473	39,33
816,694	36,85
816,914	36,68
817,134	34,05
817,354	29,76
817,574	29,23
817,794	25,53
818,014	22,46
818,234	19,71
818,454	17,96
818,674	15,92
818,894	13,41
819,114	14,82
819,334	14,63
819,554	15,43
819,774	17,15
819,994	15,4
820,214	16,5
820,433	15,31
820,653	16,44
820,873	18,59
821,093	19,42
821,312	17,46
821,532	19,22
821,752	21,63
821,972	20,84
822,191	22,02
822,411	20,19
822,63	21,25
822,85	22,02
823,07	19,57
823,289	20,05
823,509	18,39
823,728	20,28
823,948	17,79
824,167	17,96
824,387	17,45
824,606	20,11
824,825	19,13
825,045	19,22
825,264	19,62
825,483	22,12
825,703	22,77
825,922	20,91
826,141	20,15
826,361	19,7
826,58	15,45
826,799	13,44
827,018	13,58
827,237	14,13
827,456	14,49
827,676	13,7
827,895	13,41
828,114	15,49
828,333	15,3
828,552	14,86
828,771	16,17
828,99	14,06
829,209	14,25
829,428	14,91
829,647	15,45
829,866	16,11
830,084	16
830,303	16,37
830,522	14,64
830,741	15,42
830,96	15,45
831,179	15,5
831,397	12,92
831,616	13,89
831,835	13,4
832,053	12,64
832,272	11,95
832,491	13,44
832,709	12,05
832,928	13,39
833,147	13,01
833,365	14,06
833,584	17,05
833,802	20,64
834,021	20,2
834,239	20,93
834,458	19,5
834,676	16,36
834,894	14,65
835,113	13,32
835,331	13,27
835,55	11,61
835,768	11,15
835,986	12,57
836,204	10,86
836,423	10,27
836,641	9,9
836,859	9,48
837,077	10,87
837,296	10,24
837,514	9,99
837,732	10,93
837,95	10,81
838,168	14,49
838,386	14,7
838,604	17,64
838,822	20,02
839,04	21,52
839,258	24,06
839,476	28,67
839,694	29,92
839,912	32,1
840,13	33,6
840,348	37,81
840,566	35,11
840,783	38,14
841,001	38,07
841,219	42
841,437	44,66
841,655	46,51
841,872	47,14
842,09	47,24
842,308	49,56
842,525	50,37
842,743	50,56
842,961	50,56
843,178	47,77
843,396	50,27
843,613	51,02
843,831	50,49
844,048	49,65
844,266	49,33
844,483	48,08
844,701	46,82
844,918	45,25
845,136	43,03
845,353	41,56
845,57	40,55
845,788	40,64
846,005	35,87
846,222	31,56
846,439	30,76
846,657	28,77
846,874	27,44
847,091	22,99
847,308	23,7
847,526	21,85
847,743	20,73
847,96	17,19
848,177	15,87
848,394	13,88
848,611	13,27
848,828	13,22
849,045	12,22
849,262	11,59
849,479	11,15
849,696	10,61
849,913	11,73
850,13	8,83
850,347	11,54
850,564	11,77
850,78	11,02
850,997	10,27
851,214	11,13
851,431	11,41
851,647	9,99
851,864	12,79
852,081	12,75
852,298	9,45
852,514	7,59
852,731	9,65
852,948	12,1
853,164	11,9
853,381	11,85
853,597	11,81
853,814	11,29
854,03	9,41
854,247	9,82
854,463	9,45
854,68	9,48
854,896	10,21
855,113	10,51
855,329	11,81
855,545	12,21
855,762	11,51
855,978	10,44
856,194	8,25
856,411	10,61
856,627	11,12
856,843	10,68
857,059	10,85
857,275	9,98
857,492	10,22
857,708	12,5
857,924	13,94
858,14	15,94
858,356	15,84
858,572	15,56
858,788	14,64
859,004	16,67
859,22	15,71
859,436	15,63
859,652	13,43
859,868	12,77
860,084	12,77
860,3	12,2
860,516	10,72
860,731	9,28
860,947	7,37
861,163	9,8
861,379	10,76
861,595	12,88
861,81	13,58
862,026	12,42
862,242	11,97
862,457	11,53
862,673	11,8
862,889	13,95
863,104	13,58
863,32	13,42
863,535	14,75
863,751	11,47
863,966	13,67
864,182	14,62
864,397	13,05
864,613	10,61
864,828	10,13
865,044	10,21
865,259	11,12
865,474	11,41
865,69	12,42
865,905	12,47
866,12	10,18
866,336	10,43
866,551	11,26
866,766	10,12
866,981	10,35
867,196	11,29
867,412	12,83
867,627	14,8
867,842	12,24
868,057	11,56
868,272	10,03
868,487	9,2
868,702	8,09
868,917	7,37
869,132	8,6
869,347	10,01
869,562	7,54
869,777	6,79
869,992	6,11
870,207	5,79
870,422	5,33
870,636	3,26
870,851	3,27
871,066	2,14
871,281	0,79
871,495	-1,55
871,71	0,34
871,925	-1,61
872,14	-3,7
872,354	-3,85
872,569	-4,38
872,783	-2,7
872,998	-2,48
873,213	-2,65
873,427	0,05
873,642	0,34
873,856	-0,04
874,071	-0,71
874,285	-3,05
874,5	-3,68
874,714	-5,38
874,928	-5,98
875,143	-7,01
875,357	-7,3
875,571	-8,55
875,786	-8,75
876	-6,71
876,214	-5,26
876,429	-6,36
876,643	-5,28
876,857	-3,86
877,071	-2,79
877,285	-3,33
877,499	-5,12
877,714	-2,67
877,928	0,61
878,142	-0,45
878,356	-2,28
878,57	-1,21
878,784	0,95
878,998	-0,49
879,212	1,63
879,426	0,09
879,639	1
879,853	-0,04
880,067	-0,97
880,281	-1,85
880,495	0,41
880,709	1,8
880,922	3,69
881,136	4,59
881,35	6,78
881,564	6,53
881,777	6,72
881,991	8,89
882,205	11,8
882,418	10,7
882,632	8,07
882,845	9,46
883,059	10,47
883,273	9,21
883,486	8,5
883,7	9,35
883,913	10,12
884,126	10,9
884,34	8,46
884,553	6,98
884,767	9,88
884,98	10,15
885,193	9,11
885,407	8,44
885,62	10,15
885,833	10,99
886,046	13,36
886,26	12,4
886,473	12,25
886,686	11,2
886,899	13,91
887,112	11,53
887,326	10,93
887,539	9,82
887,752	10,77
887,965	8,76
888,178	9,89
888,391	10,55
888,604	9,06
888,817	7,82
889,03	10,04
889,243	9,19
889,455	6,98
889,668	7,38
889,881	10,4
890,094	9,01
890,307	8,16
890,52	8,93
890,732	8,67
890,945	8,83
891,158	9,18
891,37	7,38
891,583	7,08
891,796	8,79
892,008	8,09
892,221	6,74
892,434	3,28
892,646	2,03
892,859	0,4
893,071	1,1
893,284	2,56
893,496	1,36
893,709	2,54
893,921	2,74
894,133	2,95
894,346	2,67
894,558	3,26
894,771	2,4
894,983	3,69
895,195	3,7
895,407	3,95
895,62	1,72
895,832	1,73
896,044	3,36
896,256	2,16
896,468	0,33
896,681	1,2
896,893	0,35
897,105	-0,13
897,317	0,51
897,529	1,22
897,741	0,52
897,953	3,6
898,165	2,87
898,377	0,91
898,589	1,55
898,801	1,58
899,013	3,77
899,224	4,92
899,436	7,79
899,648	6,24
899,86	4,28
900,072	5,32
900,283	5,62
900,495	6,53
900,707	6,78
900,919	4,44
901,13	4,49
901,342	3,21
901,554	2,32
901,765	3,6
901,977	2,35
902,188	2,22
902,4	1,44
902,611	-0,84
902,823	-2
903,034	-4,45
903,246	-5,45
903,457	-5,55
903,669	-5,7
903,88	-6,91
904,091	-6,5
904,303	-6,1
904,514	-7,4
904,725	-4,83
904,936	-3,13
905,148	-3,19
905,359	-1,65
905,57	-3,1
905,781	-3,74
905,992	-4,8
906,204	-3,05
906,415	-2,44
906,626	-3,77
906,837	-2,08
907,048	-2,38
907,259	-3,88
907,47	-2,51
907,681	-2,75
907,892	-0,44
908,103	-0,83
908,314	-2,62
908,525	-0,61
908,735	-0,49
908,946	0,5
909,157	1,54
909,368	3,36
909,579	5,24
909,789	4,65
910	4,35
910,211	6,09
910,421	7,36
910,632	9,43
910,843	8,43
911,053	10,41
911,264	11,93
911,475	10,51
911,685	10,69
911,896	10,94
912,106	12,28
912,317	11,88
912,527	13,27
912,737	11,72
912,948	11,77
913,158	11,32
913,369	8,16
913,579	9,47
913,789	11,24
914	12,71
914,21	11,95
914,42	11,52
914,63	10,32
914,841	10,3
915,051	11,5
915,261	11,25
915,471	12,2
915,681	12,82
915,891	12,51
916,101	11,8
916,311	11,16
916,521	12,2
916,731	11,67
916,941	12,49
917,151	10,76
917,361	12,42
917,571	8,36
917,781	5,34
917,991	4,01
918,201	5,48
918,411	2,11
918,621	1,55
918,83	1,68
919,04	1,16
919,25	3,89
919,46	5,49
919,669	3,99
919,879	4,76
920,089	2,82
920,298	1,36
920,508	0,74
920,717	2,97
920,927	2,11
921,136	4,2
921,346	4,54
921,555	1,98
921,765	2,04
921,974	1,56
922,184	-0,66
922,393	0,11
922,603	-1,23
922,812	1,83
923,021	1,37
923,23	0,63
923,44	-1,91
923,649	-3,29
923,858	-4,62
924,067	-4,3
924,277	-4,23
924,486	-2,78
924,695	-5,28
924,904	-2,99
925,113	-2,66
925,322	-2,78
925,531	-4,2
925,74	-6,57
925,949	-7,62
926,158	-5,63
926,367	-6,29
926,576	-5,29
926,785	-5,2
926,994	-5,98
927,203	-5,7
927,412	-6,39
927,621	-8,78
927,83	-7,87
928,038	-8,62
928,247	-8,54
928,456	-9,97
928,665	-8,82
928,873	-9,89
929,082	-7,5
929,291	-8,21
929,499	-7,18
929,708	-8,03
929,916	-6,61
930,125	-7,13
930,333	-5,98
930,542	-3,36
930,75	-1,97
930,959	-1,42
931,167	-0,46
931,376	0,08
931,584	0,63
931,793	1,23
932,001	2,51
932,209	2,17
932,418	0,37
932,626	-0,99
932,834	-2,94
933,042	-5,5
933,251	-6,17
933,459	-5,29
933,667	-6,91
933,875	-7,46
934,083	-6,45
934,291	-6,27
934,499	-5,51
934,707	-5,72
934,915	-5,52
935,123	-4,95
935,331	-3,9
935,539	-5,72
935,747	-6,87
935,955	-8,46
936,163	-8,97
936,371	-8,95
936,579	-5,88
936,787	-7,3
936,995	-8,29
937,202	-10,35
937,41	-10,24
937,618	-10,95
937,826	-11,77
938,033	-15,35
938,241	-15,75
938,449	-14,2
938,656	-12,39
938,864	-11,18
939,071	-11,66
939,279	-7,93
939,486	-5,28
939,694	-5,66
939,901	-7,4
940,109	-5,6
940,316	-4,46
940,524	-3,39
940,731	-4,64
940,939	-3,16
941,146	-2,84
941,353	-3,7
941,561	-3,7
941,768	-5,41
941,975	-3,79
942,182	-4,37
942,39	-3,76
942,597	-1,55
942,804	-2,27
943,011	-4,77
943,218	-3
943,425	-3,11
943,632	-2,07
943,839	-3,9
944,046	-4,84
944,253	-4,64
944,46	-3,51
944,667	-1,25
944,874	-2,39
945,081	-2,36
945,288	-0,95
945,495	1,31
945,702	1,25
945,909	-0,75
946,115	1,85
946,322	2,13
946,529	0,51
946,736	-0,2
946,942	0,31
947,149	-0,64
947,356	-2,83
947,562	-3,52
947,769	-2,93
947,976	-3,02
948,182	-1,79
948,389	-2,21
948,595	0,16
948,802	0,36
949,008	-0,13
949,215	1,58
949,421	1,34
949,628	-0,45
949,834	-1,54
950,04	-1,92
950,247	1,88
950,453	3,34
950,659	2,56
950,865	4,09
951,072	-0,09
951,278	0,79
951,484	0,09
951,69	-4,47
951,896	-6,28
952,103	-6,6
952,309	-5,01
952,515	-5,66
952,721	-5,97
952,927	-4,36
953,133	-5,38
953,339	-6,39
953,545	-4,77
953,751	-3,34
953,957	-1,55
954,163	-2,95
954,369	-2,07
954,574	-2,14
954,78	-2,93
954,986	-3,08
955,192	-1,71
955,398	-2,9
955,603	-5,63
955,809	-4,13
956,015	-3,21
956,22	-1,9
956,426	-2,19
956,632	-3,44
956,837	-4,47
957,043	-4,03
957,248	-3,46
957,454	-3,16
957,66	-4,4
957,865	-4,14
958,07	-2,24
958,276	-2,96
958,481	-4,24
958,687	-4,93
958,892	-4,42
959,097	-3,59
959,303	-5,55
959,508	-5,79
959,713	-6,1
959,919	-6,81
960,124	-7,5
960,329	-7,89
960,534	-4,99
960,739	-5,17
960,945	-5,29
961,15	-5,03
961,355	-7,1
961,56	-10,26
961,765	-11,48
961,97	-11,75
962,175	-10,27
962,38	-12,5
962,585	-12,72
962,79	-13,83
962,995	-15,54
963,2	-15,08
963,404	-15,27
963,609	-17,89
963,814	-17,47
964,019	-20,32
964,224	-22,23
964,428	-19,89
964,633	-18,1
964,838	-16,96
965,042	-18,1
965,247	-19,67
965,452	-18,98
965,656	-16,73
965,861	-16,25
966,066	-17,63
966,27	-15,19
966,475	-12,2
966,679	-14,87
966,884	-13,79
967,088	-14,98
967,292	-15,31
967,497	-12,74
967,701	-13,01
967,906	-11,46
968,11	-8,87
968,314	-4,82
968,518	-6,07
968,723	-4,33
968,927	-3,02
969,131	-1,55
969,335	0,67
969,539	0,69
969,744	1,4
969,948	3,69
970,152	5,21
970,356	7,17
970,56	8,36
970,764	7,57
970,968	8,93
971,172	8,54
971,376	9,65
971,58	9,61
971,784	10,3
971,988	8,87
972,192	11,85
972,395	11,6
972,599	8,2
972,803	5,81
973,007	7,21
973,21	6,38
973,414	5,75
973,618	6,08
973,822	3,7
974,025	4,11
974,229	4,28
974,432	2,2
974,636	0,63
974,84	0,76
975,043	0,48
975,247	-1,42
975,45	-3,05
975,654	-3,11
975,857	-1,78
976,06	-1,64
976,264	-3,08
976,467	-3,78
976,671	-4,02
976,874	-3,91
977,077	-4,5
977,28	-5,96
977,484	-7,89
977,687	-8,87
977,89	-7,81
978,093	-8,36
978,297	-7,83
978,5	-9,98
978,703	-9,19
978,906	-7,72
979,109	-8,01
979,312	-6,72
979,515	-7,64
979,718	-7,84
979,921	-7,29
980,124	-8,24
980,327	-8,28
980,53	-8,44
980,733	-6,72
980,936	-5,38
981,138	-7,5
981,341	-6,32
981,544	-5,46
981,747	-4,63
981,949	-5,18
982,152	-5,24
982,355	-6,63
982,558	-3,68
982,76	-4,85
982,963	-5,53
983,165	-5,86
983,368	-5,53
983,571	-5,21
983,773	-1,55
983,976	0,3
984,178	0,79
984,381	0,99
984,583	-0,66
984,785	-0,29
984,988	2,41
985,19	3,93
985,392	2,59
985,595	0,25
985,797	0,41
985,999	1,77
986,202	3,32
986,404	3,17
986,606	5,44
986,808	4,41
987,01	4,89
987,212	4,22
987,415	4,07
987,617	4,16
987,819	3,25
988,021	4,99
988,223	3,17
988,425	3,3
988,627	3,01
988,829	-0,85
989,031	0,96
989,232	-0,19
989,434	1,12
989,636	-0,34
989,838	-2,1
990,04	-2,08
990,242	-4,32
990,443	-6,36
990,645	-6,27
990,847	-5,06
991,048	-4,64
991,25	-6,86
991,452	-7,18
991,653	-6,32
991,855	-5,87
992,057	-6,6
992,258	-5,58
992,46	-7,9
992,661	-6,1
992,863	-7,85
993,064	-7,53
993,265	-7,83
993,467	-9,5
993,668	-7,92
993,87	-8,34
994,071	-8,17
994,272	-9,89
994,473	-8,62
994,675	-8,04
994,876	-7
995,077	-6,3
995,278	-5,93
995,48	-4,26
995,681	-6,48
995,882	-3,79
996,083	-2,83
996,284	-6,58
996,485	-6,41
996,686	-6,37
996,887	-7,15
997,088	-8,86
997,289	-10,27
997,49	-10,51
997,691	-11,7
997,892	-12,48
998,092	-9,54
998,293	-8,51
998,494	-9,51
998,695	-9,11
998,896	-8,26
999,096	-7,85
999,297	-7,35
999,498	-9,75
999,698	-11,92
999,899	-13,47
1000,1	-15,85
1000,3	-15,75
1000,501	-14,87
1000,701	-14,53
1000,902	-16,01
1001,102	-16,02
1001,303	-13,79
1001,503	-16,37
1001,704	-15,86
1001,904	-16,52
1002,105	-17,6
1002,305	-17,33
1002,505	-17,59
1002,706	-16,57
1002,906	-16,71
1003,106	-17,3
1003,306	-15,94
1003,507	-13,6
1003,707	-13,67
1003,907	-11,23
1004,107	-9,38
1004,307	-11,86
1004,507	-12,04
1004,707	-12,14
1004,907	-13,3
1005,107	-14,39
1005,308	-13,67
1005,507	-14,65
1005,707	-11,31
1005,907	-9,63
1006,107	-8,11
1006,307	-5,77
1006,507	-6,95
1006,707	-6,01
1006,907	-6,65
1007,106	-7,19
1007,306	-7,42
1007,506	-7,93
1007,706	-6,89
1007,905	-8,73
1008,105	-7,62
1008,305	-8,52
1008,504	-8,69
1008,704	-5,35
1008,903	-5,41
1009,103	-3,72
1009,303	-5,24
1009,502	-4,58
1009,702	-6,24
1009,901	-6,63
1010,1	-9,6
1010,3	-8,55
1010,499	-7,98
1010,699	-9,15
1010,898	-8,67
1011,097	-8,18
1011,296	-8,9
1011,496	-10,42
1011,695	-11,04
1011,894	-12,99
1012,093	-11,63
1012,293	-11,44
1012,492	-12,04
1012,691	-11,64
1012,89	-13,11
1013,089	-14,87
1013,288	-13,76
1013,487	-12,92
1013,686	-12,39
1013,885	-14,01
1014,084	-12,65
1014,283	-13,17
1014,482	-13,59
1014,681	-13,02
1014,88	-15,18
1015,078	-15,53
1015,277	-17,1
1015,476	-16,82
1015,675	-17,93
1015,873	-16,7
1016,072	-17,24
1016,271	-14,89
1016,47	-18,55
1016,668	-19,26
1016,867	-18,38
1017,065	-19,57
1017,264	-20,56
1017,463	-19,31
1017,661	-19,37
1017,86	-18,67
1018,058	-17,49
1018,256	-19,02
1018,455	-19,47
1018,653	-19,44
1018,852	-17,74
1019,05	-19,01
1019,248	-20,01
1019,447	-21,42
1019,645	-21,71
1019,843	-22,97
1020,041	-21,37
1020,24	-21,77
1020,438	-18,65
1020,636	-19,12
1020,834	-21,8
1021,032	-19,61
1021,23	-19,8
1021,428	-17,89
1021,626	-15,45
1021,824	-14,31
1022,022	-15,99
1022,22	-14,14
1022,418	-13,89
1022,616	-12,85
1022,814	-12,47
1023,012	-12,25
1023,21	-11,11
1023,408	-11,52
1023,606	-13,3
1023,803	-8,96
1024,001	-9,28
1024,199	-12,04
1024,397	-10,71
1024,594	-11,9
1024,792	-12,68
1024,99	-12,24
1025,187	-11,74
1025,385	-7,87
1025,582	-7,05
1025,78	-8,27
1025,977	-9,05
1026,175	-9,25
1026,372	-9,22
1026,57	-11,14
1026,767	-8,96
1026,965	-7,04
1027,162	-8,38
1027,359	-7,69
1027,557	-8,02
1027,754	-9,02
1027,951	-11,18
1028,148	-9,18
1028,346	-11,32
1028,543	-12,95
1028,74	-13,87
1028,937	-15,81
1029,134	-17,76
1029,331	-19,35
1029,528	-18,34
1029,725	-18,46
1029,923	-21,75
1030,12	-18,74
1030,317	-17,77
1030,513	-16,54
1030,71	-14,22
1030,907	-12,04
1031,104	-12,89
1031,301	-13,94
1031,498	-14,67
1031,695	-15,38
1031,892	-15,21
1032,088	-14,74
1032,285	-16,08
1032,482	-15,51
1032,678	-17,73
1032,875	-19,55
1033,072	-19,89
1033,268	-19,13
1033,465	-19,8
1033,662	-22,28
1033,858	-21,94
1034,055	-21,55
1034,251	-21,35
1034,448	-20,21
1034,644	-19,8
1034,84	-17,3
1035,037	-14,46
1035,233	-13,64
1035,43	-12,54
1035,626	-13,01
1035,822	-11,52
1036,019	-11,89
1036,215	-13,95
1036,411	-14,95
1036,607	-17,25
1036,803	-20,23
1037	-21,62
1037,196	-22,85
1037,392	-21,61
1037,588	-24,2
1037,784	-24,43
1037,98	-23,94
1038,176	-23,5
1038,372	-21,79
1038,568	-20,69
1038,764	-19,05
1038,96	-16,77
1039,156	-17,48
1039,352	-17,75
1039,547	-17,53
1039,743	-16,36
1039,939	-15,47
1040,135	-16,05
1040,331	-17,06
1040,526	-14,91
1040,722	-15,61
1040,918	-16,33
1041,113	-19,6
1041,309	-19,83
1041,505	-20,82
1041,7	-18,7
1041,896	-19,7
1042,091	-20,42
1042,287	-20,69
1042,482	-19,31
1042,678	-18,94
1042,873	-17,41
1043,069	-17,35
1043,264	-16,94
1043,459	-16,8
1043,655	-14,38
1043,85	-13,09
1044,045	-12,82
1044,24	-12,89
1044,436	-13,16
1044,631	-15,25
1044,826	-14,99
1045,021	-17,7
1045,216	-16,43
