Data from led_USB4H112691__9__12-00-24-379.txt Node

Date: Tue Dec 17 12:00:24 CET 2024
User: Etudiants TP
Spectrometer: USB4H11269
Trigger mode: 4
Integration Time (sec): 1,000000E0
Scans to average: 1
Electric dark correction enabled: true
Nonlinearity correction enabled: false
Boxcar width: 0
XAxis mode: Wavelengths
Number of Pixels in Spectrum: 3648
>>>>>Begin Spectral Data<<<<<
286,377	-1674,04
286,631	-1674,04
286,884	-1674,04
287,138	-1688,38
287,391	-1602,36
287,644	-856,9
287,896	-564,04
288,149	687,26
288,401	472,23
288,653	-504,65
288,905	-398,16
289,157	793,76
289,409	357,54
289,661	-447,31
289,912	-822,09
290,163	511,14
290,414	771,23
290,665	-668,49
290,916	-541,52
291,166	689,31
291,417	1119,39
291,667	-621,39
291,917	-222,03
292,167	550,05
292,417	388,26
292,666	-740,17
292,916	-662,35
293,165	588,96
293,414	810,14
293,663	-949,06
293,912	-721,74
294,16	842,91
294,408	717,98
294,657	-695,11
294,905	-387,92
295,153	644,26
295,4	689,31
295,648	-766,79
295,895	-607,05
296,143	224,42
296,39	750,75
296,637	-609,1
296,884	-643,92
297,13	691,36
297,377	990,36
297,623	-471,89
297,869	-299,86
298,115	806,05
298,361	746,66
298,606	-758,6
298,852	-572,24
299,097	576,67
299,342	1115,29
299,587	-439,12
299,832	-518,99
300,077	765,09
300,322	679,07
300,566	-693,07
300,81	-424,78
301,054	507,04
301,298	822,43
301,542	-107,35
301,785	-303,95
302,029	926,88
302,272	783,52
302,515	-770,89
302,758	-459,6
303,001	900,25
303,244	810,14
303,486	-496,46
303,729	-815,94
303,971	978,08
304,213	855,2
304,455	-850,76
304,696	-308,05
304,938	300,2
305,179	834,72
305,421	-398,16
305,662	-383,82
305,903	445,6
306,143	408,74
306,384	-398,16
306,625	-488,27
306,865	588,96
307,105	212,14
307,345	-455,5
307,585	-449,36
307,825	117,93
308,064	810,14
308,304	-529,23
308,543	-756,55
308,782	576,67
309,021	830,62
309,26	-242,51
309,499	-594,76
309,737	898,2
309,976	824,48
310,214	-688,97
310,452	-602,96
310,69	1197,21
310,928	220,33
311,165	-615,24
311,403	-510,8
311,64	953,5
311,878	703,65
312,115	-572,24
312,351	-494,41
312,588	500,9
312,825	885,92
313,061	-707,4
313,298	93,35
313,534	384,16
313,77	937,12
314,006	-525,13
314,241	-607,05
314,477	765,09
314,713	1139,87
314,948	-426,83
315,183	238,76
315,418	973,98
315,653	519,33
315,888	-641,87
316,122	-344,91
316,357	423,08
316,591	871,58
316,825	-475,98
317,059	-471,89
317,293	1014,94
317,527	523,43
317,76	-545,61
317,994	-459,6
318,227	750,75
318,46	1150,11
318,693	-643,92
318,926	-385,87
319,159	183,46
319,391	664,74
319,624	-740,17
319,856	-527,18
320,088	863,39
320,321	726,18
320,552	-330,58
320,784	-611,15
321,016	904,35
321,247	76,97
321,479	-291,66
321,71	-297,81
321,941	-4,95
322,172	1164,44
322,403	-576,33
322,633	-312,14
322,864	937,12
323,094	322,73
323,325	-21,33
323,555	-600,91
323,785	285,86
324,014	289,96
324,244	-365,39
324,474	-353,1
324,703	1000,6
324,933	824,48
325,162	-369,49
325,391	-731,98
325,62	-31,57
325,848	814,24
326,077	-455,5
326,306	-363,34
326,534	748,7
326,762	1012,89
326,99	-518,99
327,218	-164,69
327,446	832,67
327,674	208,04
327,901	-533,33
328,129	-625,48
328,356	912,54
328,583	289,96
328,81	-615,24
329,037	-451,41
329,264	504,99
329,491	986,27
329,717	-385,87
329,944	-590,67
330,17	515,23
330,396	310,44
330,622	-684,87
330,848	-205,65
331,074	562,34
331,299	1483,92
331,525	-662,35
331,75	-564,04
331,975	912,54
332,201	171,18
332,426	-717,64
332,65	-568,14
332,875	9,39
333,1	461,99
333,324	-684,87
333,549	-582,48
333,773	480,42
333,997	603,3
334,221	-584,52
334,445	-502,61
334,668	498,85
334,892	1109,15
335,116	-316,24
335,339	-445,26
335,562	19,63
335,785	498,85
336,008	-314,19
336,231	-580,43
336,454	-99,16
336,676	953,5
336,899	-389,97
337,121	-244,56
337,343	-60,24
337,566	601,25
337,788	-518,99
338,009	-574,28
338,231	191,66
338,453	486,56
338,674	3148,92
338,896	-398,16
339,117	74,92
339,338	1053,85
339,559	-570,19
339,78	-492,37
340,001	62,63
340,222	933,02
340,442	-492,37
340,663	-181,07
340,883	775,33
341,103	496,8
341,323	-471,89
341,543	-297,81
341,763	804
341,983	330,92
342,202	-648,01
342,422	-629,58
342,641	1291,41
342,861	457,89
343,08	-33,62
343,299	-641,87
343,518	758,94
343,736	709,79
343,955	-473,93
344,174	-611,15
344,392	832,67
344,61	179,37
344,829	-672,59
345,047	-447,31
345,265	756,9
345,483	1049,75
345,7	-562
345,918	-64,34
346,136	259,24
346,353	957,6
346,57	-586,57
346,788	-631,63
347,005	437,41
347,222	134,31
347,438	87,21
347,655	-529,23
347,872	185,51
348,088	1199,26
348,305	-322,38
348,521	-482,13
348,737	152,74
348,953	971,93
349,169	-76,63
349,385	-402,26
349,601	382,12
349,817	62,63
350,032	-144,21
350,248	-199,51
350,463	1248,41
350,678	-189,27
350,893	-551,76
351,108	-617,29
351,323	253,09
351,538	887,97
351,753	-600,91
351,967	-455,5
352,182	961,69
352,396	287,91
352,61	-615,24
352,824	-469,84
353,038	654,5
353,252	861,34
353,466	-322,38
353,68	-580,43
353,894	464,04
354,107	208,04
354,32	-295,76
354,534	-580,43
354,747	824,48
354,96	15,53
355,173	-240,47
355,386	-717,64
355,599	582,82
355,811	431,27
356,024	-602,96
356,236	-318,29
356,449	339,11
356,661	437,41
356,873	-639,82
357,085	-758,6
357,297	685,22
357,509	713,89
357,721	-484,17
357,933	-449,36
358,144	332,97
358,356	251,05
358,567	-344,91
358,778	-633,68
358,989	904,35
359,2	292,01
359,411	-414,54
359,622	-289,62
359,833	625,83
360,044	478,37
360,254	-594,76
360,465	-650,06
360,675	537,76
360,885	556,19
361,096	-648,01
361,306	-500,56
361,516	355,49
361,726	521,38
361,935	-807,75
362,145	-494,41
362,355	586,91
362,564	636,06
362,774	-758,6
362,983	-680,78
363,192	969,88
363,401	222,38
363,61	-627,53
363,819	-224,08
364,028	529,57
364,237	969,88
364,445	-527,18
364,654	-271,19
364,862	470,18
365,071	203,94
365,279	-398,16
365,487	-598,86
365,695	611,49
365,903	384,16
366,111	-582,48
366,319	-437,07
366,527	568,48
366,734	341,16
366,942	-344,91
367,149	-660,3
367,357	-488,27
367,564	1062,04
367,771	-420,69
367,978	-578,38
368,185	201,9
368,392	363,69
368,599	-201,55
368,806	-535,37
369,013	3,24
369,219	595,11
369,426	-656,2
369,632	-127,83
369,838	1248,41
370,044	662,69
370,251	-512,85
370,457	-451,41
370,663	887,97
370,868	445,6
371,074	-566,09
371,28	-531,28
371,485	-131,92
371,691	781,47
371,896	-633,68
372,102	-674,64
372,307	1117,34
372,512	920,73
372,717	-592,72
372,922	-111,44
373,127	130,22
373,332	519,33
373,537	-414,54
373,741	-451,41
373,946	500,9
374,151	251,05
374,355	-652,11
374,559	-480,08
374,764	302,25
374,968	-209,75
375,172	-576,33
375,376	-146,26
375,58	588,96
375,784	126,12
375,987	-631,63
376,191	-439,12
376,395	347,3
376,598	257,19
376,802	-635,72
377,005	-140,12
377,208	210,09
377,412	165,03
377,615	-727,88
377,818	-607,05
378,021	292,01
378,224	-4,95
378,426	-537,42
378,629	-686,92
378,832	873,63
379,034	601,25
379,237	-762,7
379,439	-838,47
379,642	824,48
379,844	615,59
380,046	-770,89
380,248	-619,34
380,45	-66,39
380,652	-70,48
380,854	-480,08
381,056	-598,86
381,258	398,5
381,459	515,23
381,661	-633,68
381,862	-299,86
382,064	-97,11
382,265	283,81
382,467	-672,59
382,668	-439,12
382,869	820,38
383,07	466,08
383,271	-424,78
383,472	-619,34
383,673	701,6
383,874	412,84
384,074	-412,5
384,275	-676,68
384,476	666,78
384,676	1203,35
384,876	-648,01
385,077	-502,61
385,277	789,66
385,477	963,74
385,677	-621,39
385,878	-422,73
386,078	357,54
386,278	365,73
386,477	-211,79
386,677	-181,07
386,877	543,91
387,077	812,19
387,276	-363,34
387,476	-336,72
387,675	459,94
387,875	1006,75
388,074	-543,57
388,273	-396,11
388,472	928,92
388,671	52,39
388,87	-652,11
389,069	-70,48
389,268	-86,87
389,467	158,89
389,666	-691,02
389,865	-168,79
390,063	584,87
390,262	826,53
390,461	-465,74
390,659	-607,05
390,857	746,66
391,056	765,09
391,254	-553,8
391,452	-486,22
391,65	797,85
391,849	554,15
392,047	-275,28
392,245	-144,21
392,442	406,69
392,64	560,29
392,838	-117,59
393,036	-385,87
393,233	390,31
393,431	435,36
393,629	-791,37
393,826	-398,16
394,023	402,6
394,221	-21,33
394,418	-299,86
394,615	-152,4
394,812	-86,87
395,01	894,11
395,207	-492,37
395,404	-619,34
395,601	949,4
395,797	554,15
395,994	-596,81
396,191	-389,97
396,388	394,4
396,584	744,61
396,781	-234,32
396,977	46,25
397,174	804
397,37	11,43
397,567	-316,24
397,763	-480,08
397,959	527,52
398,155	398,5
398,352	-389,97
398,548	-136,02
398,744	494,76
398,94	513,19
399,136	-738,12
399,331	-209,75
399,527	486,56
399,723	611,49
399,919	-299,86
400,114	-537,42
400,31	380,07
400,505	674,98
400,701	-406,35
400,896	-455,5
401,092	298,15
401,287	392,36
401,482	-502,61
401,678	-346,96
401,873	760,99
402,068	728,22
402,263	-277,33
402,458	-365,39
402,653	171,18
402,848	752,8
403,043	-273,23
403,237	-469,84
403,432	380,07
403,627	-95,06
403,822	-598,86
404,016	-340,82
404,211	281,77
404,405	840,86
404,6	-70,48
404,794	-80,72
404,989	687,26
405,183	361,64
405,377	-195,41
405,571	-19,29
405,766	734,37
405,96	488,61
406,154	-328,53
406,348	-217,94
406,542	734,37
406,736	691,36
406,93	-428,88
407,124	-238,42
407,318	566,43
407,511	629,92
407,705	-111,44
407,899	-336,72
408,092	785,57
408,286	644,26
408,48	-437,07
408,673	-273,23
408,867	273,57
409,06	695,46
409,253	-27,48
409,447	-93,01
409,64	986,27
409,833	746,66
410,026	-45,91
410,22	113,83
410,413	1027,23
410,606	715,94
410,799	-256,85
410,992	-119,64
411,185	691,36
411,378	1408,15
411,571	-123,73
411,764	19,63
411,956	1043,61
412,149	896,16
412,342	222,38
412,534	146,6
412,727	1078,43
412,92	855,2
413,112	27,82
413,305	355,49
413,497	1391,77
413,69	1281,18
413,882	261,29
414,075	335,01
414,267	1088,67
414,459	930,97
414,652	23,72
414,844	158,89
415,036	1186,97
415,228	1426,58
415,42	507,04
415,612	232,62
415,804	1594,51
415,997	1256,6
416,188	543,91
416,38	480,42
416,572	945,31
416,764	1557,65
416,956	406,69
417,148	443,56
417,34	1264,79
417,531	847,01
417,723	541,86
417,915	619,68
418,107	1062,04
418,298	1555,6
418,49	656,54
418,681	824,48
418,873	1977,48
419,064	1600,66
419,256	816,29
419,447	636,06
419,639	1766,54
419,83	2061,45
420,021	959,64
420,213	838,81
420,404	1731,73
420,595	1811,6
420,786	1092,76
420,978	1125,53
421,169	2086,03
421,36	1817,74
421,551	1088,67
421,742	1041,56
421,933	2497,67
422,124	2169,99
422,315	1258,65
422,506	1402,01
422,697	2247,82
422,888	1944,72
423,079	1739,92
423,27	1289,37
423,461	2274,44
423,652	2194,57
423,842	1528,98
424,033	1668,24
424,224	2774,14
424,415	3181,69
424,605	1965,2
424,796	1772,69
424,987	2958,46
425,177	2833,54
425,368	1641,62
425,558	1789,07
425,749	2714,75
425,939	2776,19
426,13	2532,48
426,32	2368,65
426,511	2749,57
426,701	2829,44
426,892	2249,86
427,082	2354,31
427,272	3091,58
427,463	3443,83
427,653	2684,03
427,843	2851,97
428,034	3998,83
428,224	3697,78
428,414	2567,3
428,604	2897,02
428,795	3824,75
428,985	3898,48
429,175	3265,66
429,365	3495,03
429,555	4134
429,745	4260,97
429,935	3435,64
430,126	3673,2
430,316	4709,47
430,506	4975,71
430,696	3890,29
430,886	4174,95
431,076	4967,52
431,266	4607,08
431,456	4396,14
431,645	4191,34
431,835	5018,72
432,025	5377,11
432,215	4181,1
432,405	4723,81
432,595	5467,22
432,785	5297,24
432,975	4936,8
433,164	4574,31
433,354	5794,9
433,544	6065,23
433,734	4988
433,923	5557,33
434,113	6081,61
434,303	6401,1
434,493	5973,07
434,682	6118,48
434,872	7121,98
435,062	6474,82
435,251	6218,83
435,441	6239,31
435,631	7507
435,82	7416,89
436,01	6577,22
436,2	6880,32
436,389	7691,32
436,579	8764,45
436,768	7576,63
436,958	7818,29
437,147	8367,15
437,337	8868,9
437,527	8137,77
437,716	8049,71
437,906	9563,16
438,095	9237,53
438,285	8639,53
438,474	8735,78
438,664	10277,9
438,853	9894,93
439,043	9427,99
439,232	9503,77
439,422	10710,02
439,611	10939,4
439,8	9886,74
439,99	10669,06
440,179	11570,17
440,369	11803,64
440,558	10603,53
440,748	11004,93
440,937	11826,17
441,126	12207,09
441,316	11983,86
441,505	11918,32
441,695	13097,95
441,884	13736,92
442,073	12649,45
442,263	12334,06
442,452	13683,67
442,642	14379,98
442,831	13249,5
443,02	13786,07
443,21	15025,09
443,399	15952,82
443,588	14650,32
443,778	14539,72
443,967	16098,23
444,156	15690,68
444,346	15092,68
444,535	15301,57
444,725	17243,04
444,914	16262,07
445,103	16178,1
445,293	16665,52
445,482	17781,66
445,671	17601,44
445,861	17273,76
446,05	17011,62
446,239	17906,59
446,429	18013,08
446,618	17214,37
446,807	17630,11
446,997	19041,16
447,186	19008,39
447,376	18183,06
447,565	18307,99
447,754	19415,94
447,944	19534,72
448,133	18426,77
448,322	18244,5
448,512	19565,44
448,701	19729,28
448,891	18600,85
449,08	18621,33
449,269	19454,85
449,459	19035,02
449,648	18531,22
449,838	18811,79
450,027	18842,51
450,217	19356,55
450,406	18414,48
450,595	19084,17
450,785	19592,06
450,974	19596,16
451,164	18699,15
451,353	18836,36
451,543	19520,38
451,732	19852,16
451,922	18287,51
452,111	18226,07
452,301	18764,68
452,49	18215,83
452,68	17742,75
452,869	18121,62
453,059	18670,48
453,249	19088,26
453,438	17361,83
453,628	17673,12
453,817	18590,61
454,007	18740,11
454,197	17423,26
454,386	17677,21
454,576	19012,49
454,765	18412,43
454,955	17529,76
455,145	17320,87
455,334	17830,81
455,524	17189,8
455,714	17136,55
455,904	16544,69
456,093	17787,8
456,283	17755,04
456,473	16386,99
456,663	16313,27
456,852	17101,73
457,042	17525,66
457,232	16479,15
457,422	16827,31
457,612	16737,2
457,802	17910,68
457,991	15604,67
458,181	15485,89
458,371	17148,84
458,561	16673,71
458,751	15842,23
458,941	15893,43
459,131	16634,8
459,321	16530,35
459,511	15748,03
459,701	15860,66
459,891	16534,45
460,081	15971,25
460,271	15352,77
460,461	15541,18
460,651	17032,1
460,841	17372,07
461,032	15608,76
461,222	15795,13
461,412	16573,36
461,602	17474,46
461,792	15295,43
461,983	15283,14
462,173	16505,77
462,363	16890,79
462,554	15584,19
462,744	15461,31
462,934	16677,8
463,125	16368,56
463,315	14994,37
463,505	15309,76
463,696	16151,48
463,886	16188,34
464,077	15385,54
464,267	15186,88
464,458	16985
464,648	15739,83
464,839	15428,54
465,03	15576
465,22	15817,66
465,411	16751,53
465,601	15516,61
465,792	15336,38
465,983	15940,54
466,174	16444,34
466,364	15092,68
466,555	15451,07
466,746	16411,57
466,937	16206,77
467,128	15301,57
467,319	15420,35
467,51	16565,17
467,701	17517,47
467,891	15444,93
468,082	15111,11
468,274	16206,77
468,465	15889,34
468,656	15485,89
468,847	15145,92
469,038	15651,77
469,229	16507,82
469,42	15625,15
469,612	15596,48
469,803	16866,22
469,994	16855,98
470,185	15758,27
470,377	15313,86
470,568	16837,55
470,76	16956,33
470,951	15799,23
471,142	15934,39
471,334	17132,45
471,526	16882,6
471,717	16260,02
471,909	15840,18
472,1	16624,56
472,292	17081,25
472,484	16028,6
472,675	15928,25
472,867	17271,72
473,059	17419,17
473,251	16544,69
473,443	16634,8
473,635	17558,43
473,826	17701,79
474,018	16733,1
474,21	16864,17
474,402	17820,57
474,595	18330,51
474,787	16989,1
474,979	16991,14
475,171	17587,1
475,363	17689,5
475,555	17376,16
475,748	17632,16
475,94	18748,3
476,132	18432,91
476,325	17791,9
476,517	18480,02
476,71	19491,71
476,902	18445,2
477,095	18072,47
477,287	18570,13
477,48	19463,04
477,673	19532,67
477,865	18676,62
478,058	18776,97
478,251	19491,71
478,444	20179,83
478,636	19073,93
478,829	18985,86
479,022	20124,54
479,215	20429,68
479,408	19688,32
479,601	20063,1
479,794	20407,16
479,988	20599,66
480,181	19983,23
480,374	19966,84
480,567	21295,97
480,76	21924,7
480,954	20276,09
481,147	20286,33
481,341	21285,73
481,534	21330,79
481,728	20659,06
481,921	21152,62
482,115	22451,03
482,308	22600,53
482,502	21279,59
482,696	21392,23
482,89	22907,73
483,084	22909,77
483,277	21936,99
483,471	22045,53
483,665	23339,85
483,859	24025,92
484,053	22190,94
484,247	22266,71
484,442	23391,05
484,636	23503,68
484,83	22858,57
485,024	22694,74
485,219	23974,72
485,413	23712,58
485,608	23243,59
485,802	23800,64
485,997	24810,29
486,191	24380,21
486,386	23698,24
486,58	23870,27
486,775	25015,08
486,97	25377,58
487,165	24511,28
487,36	24292,15
487,555	25621,28
487,75	25293,61
487,945	24611,64
488,14	24431,41
488,335	25391,91
488,53	25563,94
488,725	24593,2
488,92	25631,52
489,116	26563,35
489,311	26331,93
489,507	25199,4
489,702	26034,97
489,898	26868,5
490,093	26536,73
490,289	26506,01
490,485	26110,75
490,68	26723,09
490,876	27976,45
491,072	26200,86
491,268	26561,3
491,464	28009,22
491,66	27802,37
491,856	26594,07
492,052	27413,26
492,248	28254,97
492,445	28461,82
492,641	27314,95
492,837	27317
493,034	29203,18
493,23	29082,35
493,427	28250,88
493,623	28427
493,82	28859,12
494,017	30067,42
494,214	28054,27
494,41	28054,27
494,607	29793
494,804	29104,88
495,001	28633,85
495,198	29256,43
495,395	29991,65
495,593	30722,77
495,79	28846,83
495,987	29364,97
496,184	29719,27
496,382	30522,07
496,579	29549,29
496,777	29485,8
496,974	31443,66
497,172	30618,33
497,37	29887,2
497,568	30108,38
497,766	31662,79
497,963	31085,26
498,161	30405,34
498,359	30075,62
498,558	31734,47
498,756	32099,01
498,954	30677,72
499,152	31202
499,351	31969,99
499,549	32101,06
499,747	31021,78
499,946	31179,47
500,145	31935,17
500,343	32514,75
500,542	31648,46
500,741	31236,81
500,94	32869,05
501,139	33030,83
501,338	31474,38
501,537	32486,07
501,736	33704,62
501,935	32846,52
502,134	32072,39
502,334	32502,46
502,533	33393,33
502,733	33403,56
502,932	32711,35
503,132	32649,91
503,331	33235,63
503,531	34585,24
503,731	33043,12
503,931	33247,92
504,131	33780,39
504,331	34706,07
504,531	33649,32
504,731	33442,48
504,931	34437,79
505,132	34857,62
505,332	33456,81
505,532	33698,47
505,733	35558,03
505,933	35633,8
506,134	34005,67
506,335	34296,48
506,536	35404,43
506,736	36065,92
506,937	34736,79
507,138	34792,09
507,34	36573,82
507,541	36211,33
507,742	35390,09
507,943	35027,6
508,145	36137,6
508,346	35619,47
508,548	35216,02
508,749	35070,61
508,951	35914,37
509,153	35908,23
509,354	35664,52
509,556	35932,81
509,758	37024,37
509,96	36342,4
510,163	36463,23
510,365	36504,19
510,567	36758,14
510,769	37247,6
510,972	36113,03
511,174	37042,81
511,377	37247,6
511,58	38840,92
511,782	36649,6
511,985	36745,85
512,188	38660,7
512,391	38494,82
512,594	37395,06
512,797	37517,93
513,001	38953,56
513,204	39070,29
513,407	37972,58
513,611	37560,94
513,814	38994,52
514,018	39139,93
514,222	37902,95
514,425	38249,06
514,629	39232,08
514,833	39184,98
515,037	38672,99
515,241	38652,51
515,445	39254,61
515,65	39408,21
515,854	38945,37
516,059	39191,12
516,263	39871,05
516,468	40075,85
516,672	39508,56
516,877	39238,23
517,082	40043,08
517,287	40397,38
517,492	39598,67
517,697	39742,03
517,902	40636,99
518,107	40081,99
518,313	39797,32
518,518	39991,88
518,724	41460,27
518,929	41157,17
519,135	40542,78
519,341	39729,74
519,547	41548,34
519,753	41824,81
519,959	40542,78
520,165	40331,84
520,371	42000,94
520,577	42562,08
520,784	40809,02
520,99	41775,66
521,197	41810,48
521,404	41896,49
521,61	40753,72
521,817	40884,79
522,024	42975,77
522,231	41665,07
522,438	41261,62
522,645	41663,02
522,853	42385,96
523,06	42934,81
523,268	41617,97
523,475	41204,28
523,683	43067,93
523,891	42719,77
524,098	41081,4
524,306	41968,17
524,514	43082,27
524,722	43104,79
524,931	42187,3
525,139	41837,1
525,347	42328,61
525,556	43008,54
525,764	42768,93
525,973	42369,57
526,182	43274,77
526,391	43332,12
526,6	42455,59
526,809	42687,01
527,018	43518,48
527,227	44210,7
527,436	43256,34
527,646	42883,61
527,855	44431,88
528,065	43950,6
528,275	43303,45
528,484	43024,92
528,694	44106,25
528,904	44335,62
529,114	43399,7
529,325	43598,35
529,535	43538,96
529,745	44327,43
529,956	43614,74
530,166	43026,97
530,377	45031,93
530,588	45152,76
530,799	44069,39
531,01	43389,46
531,221	44958,2
531,432	45269,5
531,643	44237,32
531,855	44206,6
532,066	45390,33
532,278	45165,05
532,489	44392,97
532,701	43770,38
532,913	45666,8
533,125	45210,1
533,337	43987,47
533,549	44532,23
533,762	45472,24
533,974	44950,01
534,186	44339,72
534,399	44352,01
534,612	46094,83
534,825	45664,75
535,037	44669,44
535,25	45179,39
535,464	45242,87
535,677	46103,02
535,89	45085,18
536,104	44868,09
536,317	45521,4
536,531	45949,42
536,744	45023,74
536,958	44954,11
537,172	46361,06
537,386	45679,09
537,6	45627,89
537,815	45711,86
538,029	46119,4
538,244	46756,32
538,458	44958,2
538,673	45277,69
538,888	46823,9
539,103	46825,95
539,318	45943,28
539,533	45826,54
539,748	46189,03
539,963	46684,64
540,179	45724,14
540,394	45756,91
540,61	46324,2
540,826	46950,88
541,042	46483,94
541,258	46279,14
541,474	47876,56
541,69	47309,27
541,906	46598,63
542,123	46354,92
542,339	47751,63
542,556	46879,2
542,773	46266,86
542,99	46948,83
543,207	47331,8
543,424	46977,5
543,641	47182,3
543,858	47274,46
544,076	47677,91
544,293	47487,45
544,511	47159,77
544,729	47104,48
544,947	47636,95
545,165	47784,4
545,383	47403,48
545,601	46979,55
545,819	48366,02
546,038	48314,83
546,256	47888,85
546,475	47415,77
546,694	49078,72
546,913	49267,13
547,132	47894,99
547,351	47655,38
547,57	48347,59
547,79	48249,29
548,009	47874,51
548,229	48177,61
548,449	48361,93
548,668	49328,57
548,888	48048,59
549,109	48333,26
549,329	49658,29
549,549	49516,98
549,77	48265,67
549,99	48525,77
550,211	49838,51
550,432	50211,24
550,653	48972,22
550,874	49027,52
551,095	50221,48
551,316	49396,15
551,538	48738,75
551,759	48683,46
551,981	49985,97
552,203	50248,11
552,424	48955,84
552,646	49545,65
552,869	50307,5
553,091	50315,69
553,313	49897,91
553,536	49676,72
553,758	50821,54
553,981	50401,71
554,204	49822,13
554,427	49938,86
554,65	50792,87
554,873	50164,14
555,097	49404,34
555,32	50127,28
555,544	51659,16
555,768	51081,63
555,992	50362,79
556,216	50551,21
556,44	50737,57
556,664	51843,48
556,888	50870,69
557,113	50647,46
557,337	51403,16
557,562	51741,08
557,787	50088,37
558,012	51009,95
558,237	51741,08
558,462	51610,01
558,688	50979,23
558,913	51327,39
559,139	51655,06
559,365	52343,18
559,591	50698,66
559,817	51237,28
560,043	52545,93
560,269	52953,47
560,496	51575,19
560,722	51523,99
560,949	53115,26
561,176	51777,94
561,403	52142,48
561,63	52158,86
561,857	52238,73
562,084	52703,62
562,312	52244,88
562,539	51995,03
562,767	53801,33
562,995	53059,97
563,223	52339,08
563,451	52681,09
563,679	52861,32
563,908	53961,08
564,136	52904,32
564,365	52801,92
564,594	53172,61
564,823	54550,89
565,052	53352,83
565,281	52773,25
565,51	54124,91
565,74	53676,41
565,969	52791,69
566,199	53541,24
566,429	53741,94
566,659	53848,44
566,889	52777,35
567,119	52803,97
567,35	54847,85
567,58	54712,68
567,811	53666,17
568,042	53752,18
568,273	53905,78
568,504	54729,06
568,735	53608,82
568,966	54083,95
569,198	55136,61
569,43	54841,7
569,661	53750,13
569,893	54317,42
570,125	55263,58
570,358	55595,35
570,59	53819,77
570,822	54014,32
571,055	55759,19
571,288	55501,15
571,521	54104,43
571,754	54636,9
571,987	55009,64
572,22	55669,08
572,454	54681,96
572,687	54108,53
572,921	55112,03
573,155	55392,61
573,389	55026,02
573,623	54780,26
573,858	55509,34
574,092	56009,04
574,327	54628,71
574,561	55230,82
574,796	55519,58
575,031	55615,83
575,266	54608,23
575,502	54921,57
575,737	56060,24
575,973	55781,72
576,209	55107,94
576,445	55116,13
576,681	56058,2
576,917	55777,62
577,153	54968,68
577,39	54827,37
577,626	55978,32
577,863	55761,24
578,1	54757,74
578,337	55142,75
578,574	55732,57
578,812	56500,56
579,049	55540,06
579,287	54733,16
579,525	56123,73
579,763	56187,22
580,001	54731,11
580,239	55613,79
580,478	56697,16
580,716	55949,65
580,955	55075,17
581,194	55583,07
581,433	56510,8
581,672	55988,56
581,911	55466,33
582,151	55515,48
582,39	55703,9
582,63	56557,9
582,87	55738,71
583,11	55320,93
583,35	55689,56
583,591	56181,07
583,831	55271,78
584,072	55771,48
584,313	56443,21
584,554	56643,91
584,795	55232,86
585,036	55611,74
585,277	57096,52
585,519	56607,05
585,761	55300,45
586,003	55273,82
586,245	56203,6
586,487	56746,31
586,729	55662,94
586,972	55679,32
587,215	56906,05
587,457	55953,75
587,7	55681,37
587,944	55574,87
588,187	55603,55
588,43	56205,65
588,674	55167,33
588,918	55052,64
589,162	56172,88
589,406	55884,12
589,65	55304,54
589,894	55298,4
590,139	55968,08
590,384	56303,95
590,629	54919,52
590,874	55484,76
591,119	55738,71
591,364	55968,08
591,61	54559,08
591,855	54641
592,101	56521,04
592,347	55810,39
592,593	54837,61
592,84	54774,12
593,086	56566,09
593,333	54749,54
593,58	54675,82
593,827	54491,5
594,074	55654,75
594,321	54710,63
594,568	54540,65
594,816	53838,2
595,064	54802,79
595,312	54964,58
595,56	54036,85
595,808	54563,18
596,057	54597,99
596,305	54434,16
596,554	53682,55
596,803	53846,39
597,052	54933,86
597,301	55173,47
597,551	53825,91
597,8	53713,27
598,05	54434,16
598,3	54219,12
598,55	53627,26
598,8	53381,5
599,051	54282,61
599,301	54108,53
599,552	53401,98
599,803	53535,1
600,054	53889,4
600,305	54053,23
600,556	53100,93
600,808	53154,18
601,06	53309,82
601,312	53731,7
601,564	52988,29
601,816	52806,02
602,068	53346,68
602,321	54034,8
602,574	52414,86
602,827	52173,2
603,08	53150,08
603,333	53723,51
603,587	52167,05
603,84	52494,73
604,094	53657,98
604,348	52509,07
604,602	51962,26
604,856	51833,24
605,111	52597,13
605,365	52883,84
605,62	51935,63
605,875	51429,79
606,13	52511,11
606,386	52363,66
606,641	51130,78
606,897	51104,16
607,153	51988,88
607,409	52902,28
607,665	50715,04
607,921	51167,65
608,178	51581,34
608,435	51937,68
608,692	51026,34
608,949	50977,18
609,206	51888,53
609,463	51177,89
609,721	51454,36
609,979	50665,89
610,237	51597,72
610,495	51870,1
610,753	50846,11
611,012	50256,3
611,27	51601,82
611,529	50794,92
611,788	49852,85
612,047	50090,41
612,307	50149,81
612,566	50864,55
612,826	49406,39
613,086	50233,77
613,346	49959,34
613,606	50608,55
613,867	49420,73
614,127	49603
614,388	49189,31
614,649	49813,94
614,91	48816,58
615,172	49056,19
615,433	49129,92
615,695	49447,35
615,957	48691,65
616,219	48654,79
616,481	49512,89
616,743	48953,79
617,006	47655,38
617,269	48339,4
617,532	49168,83
617,795	49125,82
618,058	47770,07
618,322	47210,97
618,586	48458,18
618,849	47995,34
619,114	47610,32
619,378	46883,3
619,642	48144,84
619,907	47923,66
620,172	46768,61
620,437	47436,25
620,702	47718,87
620,967	47092,19
621,233	46735,84
621,499	46332,39
621,765	46889,44
622,031	47499,73
622,297	45535,73
622,564	45980,14
622,83	46162,41
623,097	46946,78
623,364	45808,11
623,631	45646,32
623,899	46283,24
624,166	46477,8
624,434	44548,61
624,702	44745,22
624,97	45867,5
625,239	45322,74
625,507	44411,4
625,776	44605,95
626,045	45160,95
626,314	45138,43
626,584	44032,52
626,853	43782,67
627,123	44372,49
627,393	44315,14
627,663	43489,81
627,933	43002,39
628,204	43880,97
628,474	44114,44
628,745	43031,07
629,016	43313,69
629,287	43473,43
629,559	42998,3
629,83	41916,97
630,102	42240,55
630,374	42058,28
630,646	43317,78
630,919	42041,9
631,191	42054,18
631,464	42453,54
631,737	41697,84
632,01	41202,23
632,284	40727,1
632,557	42213,93
632,831	41581,1
633,105	40669,76
633,379	40215,11
633,654	40731,2
633,928	41187,89
634,203	39924,3
634,478	39813,71
634,753	40899,13
635,028	40575,55
635,304	39721,55
635,58	39518,8
635,856	39950,92
636,132	39551,57
636,408	38896,22
636,685	38773,34
636,961	39465,55
637,238	39080,53
637,515	38763,1
637,793	37919,34
638,07	39170,64
638,348	38552,16
638,626	38290,02
638,904	37812,84
639,182	37925,48
639,461	37782,12
639,74	37167,73
640,019	37448,3
640,298	37089,91
640,577	37759,59
640,857	36708,99
641,136	36174,47
641,416	36868,73
641,696	37446,26
641,977	35918,47
642,257	36061,83
642,538	36995,7
642,819	36811,38
643,1	35308,18
643,382	34861,72
643,663	36326,02
643,945	35701,39
644,227	35207,83
644,509	34665,11
644,792	36266,63
645,074	35289,74
645,357	34120,35
645,64	34230,94
645,923	35191,44
646,207	35173,01
646,49	33753,77
646,774	33594,03
647,058	34314,91
647,342	34728,6
647,627	32748,21
647,911	33043,12
648,196	34040,48
648,481	33751,72
648,767	32686,78
649,052	32393,92
649,338	33217,2
649,624	33174,19
649,91	32215,74
650,196	32150,21
650,483	32899,76
650,77	33096,37
651,057	31494,86
651,344	31402,7
651,631	32205,5
651,919	31531,72
652,207	30909,14
652,495	30763,73
652,783	31617,74
653,071	31566,54
653,36	30114,53
653,649	30517,98
653,938	31046,35
654,227	30808,79
654,517	30005,98
654,806	29434,6
655,096	29944,55
655,387	30712,53
655,677	29240,04
655,968	29170,41
656,258	29563,62
656,549	30223,07
656,841	29135,6
657,132	28261,12
657,424	29324,01
657,716	29111,02
658,008	28238,59
658,3	27839,23
658,592	28801,78
658,885	28775,16
659,178	27704,07
659,471	27144,97
659,765	27886,34
660,058	28326,65
660,352	27011,85
660,646	27230,99
660,94	28177,15
661,235	27773,7
661,53	27116,3
661,824	25983,77
662,12	27061,01
662,415	26753,81
662,711	25928,48
663,006	25852,7
663,302	26540,82
663,599	26153,76
663,895	25301,8
664,192	25537,32
664,489	26315,55
664,786	26510,1
665,083	24914,73
665,381	24566,58
665,678	25320,23
665,976	25449,25
666,275	24226,62
666,573	24767,28
666,872	24507,19
667,171	24892,21
667,47	23786,3
667,769	23423,81
668,069	24761,14
668,368	24668,98
668,668	23325,51
668,969	23001,93
669,269	23825,22
669,57	23399,24
669,871	22784,85
670,172	22704,98
670,473	24003,39
670,775	23929,66
671,077	22481,75
671,379	22336,34
671,681	23223,11
671,983	23036,75
672,286	21463,91
672,589	21898,08
672,892	22647,63
673,196	22461,27
673,499	21326,69
673,803	21179,24
674,107	22416,21
674,411	21893,98
674,716	21021,55
675,021	21029,74
675,326	21566,31
675,631	21928,8
675,936	20245,37
676,242	20241,27
676,548	21068,65
676,854	21627,74
677,16	19972,99
677,467	20142,97
677,774	20503,41
678,081	20665,2
678,388	20106,1
678,696	19626,88
679,004	20829,04
679,312	20790,13
679,62	19250,05
679,928	19164,04
680,237	20136,82
680,546	19276,68
680,855	18842,51
681,164	18510,74
681,474	19469,19
681,784	19827,58
682,094	18357,14
682,404	17830,81
682,715	19377,03
683,026	18338,71
683,337	17855,39
683,648	18144,15
683,959	18989,96
684,271	18996,1
684,583	17222,56
684,895	17449,89
685,208	18322,32
685,52	18303,89
685,833	17363,87
686,146	16708,52
686,46	18398,1
686,773	17767,32
687,087	16589,74
687,401	16382,9
687,716	17716,12
688,03	17521,57
688,345	16274,35
688,66	16141,24
688,975	17034,15
689,291	17345,44
689,607	16313,27
689,923	15768,51
690,239	16442,29
690,555	16894,89
690,872	15510,46
691,189	15010,76
691,506	16360,37
691,824	16405,42
692,142	14789,58
692,459	15276,99
692,778	15649,72
693,096	15891,38
693,415	15027,14
693,734	14801,86
694,053	15590,33
694,372	15018,95
694,692	14150,61
695,012	14418,89
695,332	14955,46
695,652	15111,11
695,973	14175,19
696,294	13886,42
696,615	14488,53
696,936	15203,27
697,258	13304,8
697,579	13687,77
697,902	14060,5
698,224	14220,24
698,546	13140,96
698,869	13169,63
699,192	13951,96
699,516	14273,49
699,839	12864,49
700,163	12956,64
700,487	13568,99
700,811	14482,38
701,136	12407,79
701,461	12571,63
701,786	13618,14
702,111	14138,32
702,436	11963,38
702,762	12516,33
703,088	13556,7
703,415	13824,98
703,741	11979,76
704,068	11910,13
704,395	12772,33
704,722	13136,87
705,05	11576,31
705,377	11535,35
705,705	12794,86
706,034	12530,67
706,362	10945,54
706,691	11033,6
707,02	12346,35
707,349	12268,53
707,679	11117,57
708,009	11166,72
708,339	12073,97
708,669	11856,89
709	11115,52
709,33	10462,22
709,661	11713,53
709,993	11609,08
710,324	10843,14
710,656	10542,09
710,988	11426,81
711,321	11543,55
711,653	9937,94
711,986	10550,28
712,319	10748,93
712,652	11308,03
712,986	10431,5
713,32	10054,67
713,654	11424,76
713,988	11211,78
714,323	9802,77
714,658	9823,25
714,993	10570,76
715,328	10578,95
715,664	9892,88
716	9921,56
716,336	11072,51
716,673	10105,87
717,009	9532,44
717,346	9337,88
717,683	10820,61
718,021	10155,02
718,359	8881,19
718,697	9116,7
719,035	9905,17
719,373	9825,3
719,712	9223,2
720,051	8434,73
720,39	10259,47
720,73	9784,34
721,07	8596,52
721,41	8582,18
721,75	9794,58
722,091	9626,65
722,432	8657,96
722,773	8713,25
723,114	9088,03
723,456	9311,26
723,798	8096,82
724,14	8252,46
724,482	8760,36
724,825	9147,42
725,168	8152,11
725,511	7945,27
725,855	8944,67
726,198	8711,21
726,542	7588,92
726,887	8000,56
727,231	8975,39
727,576	8262,7
727,921	7771,19
728,266	7232,57
728,612	8473,64
728,958	8694,82
729,304	7375,93
729,651	7943,22
729,997	8150,06
730,344	7955,51
730,691	7265,34
731,039	7394,36
731,387	8111,15
731,735	7918,64
732,083	7083,07
732,431	7072,83
732,78	7646,26
733,129	7154,75
733,479	6642,76
733,828	6900,8
734,178	7455,8
734,528	6921,28
734,879	6714,44
735,23	6491,21
735,581	7660,6
735,932	7314,49
736,283	6532,17
736,635	6368,33
736,987	7550,01
737,34	7531,58
737,692	6253,64
738,045	6165,58
738,398	7146,56
738,752	7242,81
739,105	5995,6
739,459	6413,38
739,814	7240,76
740,168	7349,31
740,523	5622,87
740,878	6073,42
741,233	6976,58
741,589	6984,77
741,945	5897,3
742,301	5805,14
742,657	6894,66
743,014	6339,66
743,371	5571,67
743,728	6138,96
744,086	6444,1
744,444	6270,03
744,802	5373,02
745,16	5160,03
745,519	6517,83
745,878	5979,22
746,237	5028,96
746,597	5309,53
746,956	6661,19
747,316	6143,05
747,677	4926,56
748,037	5219,42
748,398	5913,68
748,759	6143,05
749,121	5237,85
749,482	5287
749,844	5776,47
750,207	5442,65
750,569	4494,44
750,932	4904,03
751,295	6321,23
751,659	5807,19
752,022	4525,16
752,386	5125,21
752,751	5508,18
753,115	5166,17
753,48	4664,42
753,845	4725,86
754,21	5665,88
754,576	5356,63
754,942	4213,87
755,308	4617,32
755,675	5057,63
756,041	5899,34
756,409	3972,21
756,776	4375,66
757,144	5747,79
757,511	5422,17
757,88	4213,87
758,248	3865,71
758,617	4559,97
758,986	5014,62
759,355	4228,2
759,725	4246,63
760,095	4631,65
760,465	5266,52
760,836	3783,79
761,206	3878
761,577	5190,75
761,949	4590,69
762,32	4033,65
762,692	3785,84
763,065	4508,77
763,437	4506,73
763,81	3535,99
764,183	3857,52
764,556	4926,56
764,93	4355,18
765,304	3959,92
765,678	3703,92
766,053	4437,09
766,428	4529,25
766,803	3267,7
767,178	3363,96
767,554	3669,11
767,93	4234,35
768,306	3251,32
768,683	3165,31
769,06	4467,81
769,437	4351,08
769,814	3110,01
770,192	3097,72
770,57	4037,74
770,948	4713,57
771,327	3271,8
771,706	2972,8
772,085	4078,7
772,464	4521,06
772,844	3171,45
773,224	2962,56
773,605	3390,58
773,985	3691,63
774,366	3087,48
774,748	3366,01
775,129	4115,56
775,511	4107,37
775,893	2829,44
776,276	3046,52
776,658	4027,5
777,041	3841,14
777,425	2669,7
777,808	2806,91
778,192	3447,93
778,576	4045,93
778,961	2530,44
779,346	2548,87
779,731	3699,83
780,116	3058,81
780,502	2763,9
780,888	2581,64
781,274	3380,34
781,661	3247,23
782,048	2282,63
782,435	2501,76
782,823	3161,21
783,21	3638,39
783,598	2378,89
783,987	2479,24
784,376	3765,36
784,765	3083,39
785,154	2460,81
785,544	2413,7
785,933	3527,8
786,324	3038,33
786,714	2385,03
787,105	2184,33
787,496	3267,7
787,888	2921,6
788,279	2038,92
788,671	2200,71
789,064	3191,93
789,456	3245,18
789,849	2022,54
790,242	2024,59
790,636	2790,53
791,03	3284,09
791,424	1883,28
791,818	3519,6
792,213	3230,84
792,608	2882,69
793,004	2110,6
793,399	1725,58
793,795	2782,34
794,192	2673,79
794,588	1870,99
794,985	1594,51
795,382	2851,97
795,78	2718,85
796,178	2038,92
796,576	1832,08
796,974	3290,23
797,373	2741,38
797,772	1868,94
798,172	1725,58
798,571	2618,5
798,971	3130,49
799,372	1852,56
799,772	1830,03
800,173	2987,13
800,574	2593,92
800,976	1660,05
801,378	1371,29
801,78	2251,91
802,182	2120,84
802,585	1715,34
802,988	1535,12
803,392	2307,21
803,795	2258,06
804,199	1397,91
804,604	1641,62
805,008	2583,68
805,413	3026,04
805,819	1571,99
806,224	1232,02
806,63	2305,16
807,036	2534,53
807,443	1404,05
807,85	1608,85
808,257	2505,86
808,664	2397,32
809,072	1801,36
809,48	1569,94
809,889	2604,16
810,297	2444,42
810,706	1772,69
811,116	1289,37
811,526	1961,1
811,936	2002,06
812,346	1234,07
812,757	1158,3
813,167	2090,12
813,579	1952,91
813,99	1215,64
814,402	1154,2
814,814	2761,86
815,227	2083,98
815,64	928,92
816,053	1125,53
816,467	2380,93
816,88	2118,79
817,294	1420,44
817,709	1232,02
818,124	1877,13
818,539	2669,7
818,954	1150,11
819,37	1426,58
819,786	1567,89
820,202	2026,64
820,619	672,93
821,036	1010,84
821,453	2174,09
821,871	1987,72
822,289	863,39
822,707	849,05
823,126	2032,78
823,545	1461,4
823,964	924,83
824,384	900,25
824,804	1694,86
825,224	2071,69
825,645	1193,11
826,065	806,05
826,487	2108,55
826,908	2108,55
827,33	994,46
827,752	1178,78
828,175	1916,05
828,598	2102,41
829,021	1332,37
829,444	1655,95
829,868	1809,55
830,292	1406,1
830,717	636,06
831,142	634,02
831,567	1387,67
831,992	1504,4
832,418	1227,93
832,844	574,63
833,27	1782,93
833,697	1567,89
834,124	591,01
834,552	490,66
834,979	2114,7
835,408	1799,31
835,836	496,8
836,265	730,27
836,694	1320,09
837,123	1658
837,553	449,7
837,983	400,55
838,413	1891,47
838,844	1805,46
839,275	416,93
839,706	791,71
840,138	1965,2
840,57	1313,94
841,003	511,14
841,435	711,84
841,868	1318,04
842,302	1365,14
842,735	658,59
843,169	345,25
843,604	1576,08
844,039	1440,92
844,474	470,18
844,909	412,84
845,345	1619,09
845,781	1666,19
846,217	433,32
846,654	298,15
847,091	1666,19
847,528	1158,3
847,966	351,4
848,404	496,8
848,842	1940,62
849,281	701,6
849,72	545,95
850,16	306,34
850,599	1199,26
851,039	978,08
851,48	689,31
851,921	423,08
852,362	1383,57
852,803	1772,69
853,245	138,41
853,687	314,53
854,129	1387,67
854,572	955,55
855,015	138,41
855,459	314,53
855,903	953,5
856,347	1397,91
856,791	421,03
857,236	289,96
857,681	1830,03
858,127	2043,02
858,572	545,95
859,019	314,53
859,465	1539,22
859,912	1272,98
860,359	113,83
860,807	105,64
861,255	945,31
861,703	1436,82
862,151	292,01
862,6	836,77
863,05	1346,71
863,499	953,5
863,949	242,85
864,4	29,87
864,85	1709,2
865,301	1322,13
865,752	212,14
866,204	242,85
866,656	863,39
867,109	1436,82
867,561	101,55
868,014	466,08
868,468	1246,36
868,921	1420,44
869,376	183,46
869,83	175,27
870,285	1059,99
870,74	674,98
871,195	203,94
871,651	330,92
872,107	1588,37
872,564	875,68
873,021	-13,14
873,478	-45,91
873,936	1272,98
874,394	1277,08
874,852	72,87
875,31	312,49
875,769	1055,9
876,229	1592,47
876,688	326,82
877,148	103,59
877,609	836,77
878,069	785,57
878,531	310,44
878,992	-19,29
879,454	1019,04
879,916	1029,27
880,378	11,43
880,841	105,64
881,304	504,99
881,768	580,77
882,232	-95,06
882,696	177,32
883,161	543,91
883,626	937,12
884,091	95,4
884,557	50,35
885,023	621,73
885,489	1301,65
885,956	-183,12
886,423	-93,01
886,89	486,56
887,358	1068,19
887,826	-19,29
888,295	-43,86
888,763	584,87
889,233	1524,88
889,702	68,78
890,172	-15,19
890,642	795,81
891,113	683,17
891,584	322,73
892,055	-27,48
892,527	1168,54
892,999	1207,45
893,472	-50
893,944	-11,09
894,417	838,81
894,891	568,48
895,365	74,92
895,839	93,35
896,314	879,77
896,789	201,9
897,264	-115,54
897,74	-265,04
898,216	1143,96
898,692	1043,61
899,169	-234,32
899,646	-193,36
900,123	912,54
900,601	1365,14
901,079	-168,79
901,558	15,53
902,037	1088,67
902,516	799,9
902,996	-332,62
903,476	-201,55
903,956	709,79
904,437	1027,23
904,918	-275,28
905,399	-224,08
905,881	1012,89
906,363	947,36
906,846	-197,46
907,329	-27,48
907,812	355,49
908,296	904,35
908,78	-267,09
909,264	-310,1
909,749	486,56
910,234	998,56
910,719	-283,47
911,205	144,55
911,691	337,06
912,178	769,18
912,665	179,37
913,152	-199,51
913,64	543,91
914,128	982,17
914,616	-140,12
915,105	-197,46
915,594	773,28
916,084	1354,9
916,574	-13,14
917,064	-344,91
917,555	292,01
918,046	947,36
918,537	171,18
919,029	-592,72
919,521	457,89
920,013	1162,39
920,506	-119,64
920,999	-215,89
921,493	922,78
921,987	646,3
922,481	-37,72
922,976	-246,61
923,471	490,66
923,967	773,28
924,462	-170,83
924,959	-107,35
925,455	857,25
925,952	650,4
926,449	-328,53
926,947	-246,61
927,445	720,03
927,944	670,88
928,442	-512,85
928,942	-420,69
929,441	918,68
929,941	404,64
930,442	-353,1
930,942	-254,8
931,443	1039,51
931,945	330,92
932,447	-416,59
932,949	-324,43
933,451	584,87
933,954	537,76
934,458	-23,38
934,961	-475,98
935,465	359,59
935,97	345,25
936,475	-74,58
936,98	-312,14
937,486	58,54
937,992	519,33
938,498	-308,05
939,005	-111,44
939,512	480,42
940,019	720,03
940,527	-201,55
941,035	-95,06
941,544	838,81
942,053	562,34
942,562	-17,24
943,072	36,01
943,582	930,97
944,093	412,84
944,604	-435,02
945,115	-336,72
945,627	887,97
946,139	1174,68
946,651	-318,29
947,164	-197,46
947,677	777,37
948,191	625,83
948,705	-379,73
949,219	-465,74
949,734	433,32
950,249	849,05
950,765	-365,39
951,281	-338,77
951,797	1625,23
952,314	898,2
952,831	-306
953,348	-594,76
953,866	847,01
954,384	470,18
954,903	-357,2
955,422	-498,51
955,941	513,19
956,461	586,91
956,981	-414,54
957,502	-238,42
958,023	773,28
958,544	683,17
959,066	-273,23
959,588	-535,37
960,11	249
960,633	1002,65
961,156	-361,3
961,68	-437,07
962,204	935,07
962,729	130,22
963,253	-338,77
963,779	64,68
964,304	646,3
964,83	1076,38
965,357	-500,56
965,883	-215,89
966,411	558,24
966,938	685,22
967,466	-330,58
967,994	-574,28
968,523	322,73
969,052	1021,08
969,582	-426,83
970,112	-478,03
970,642	160,94
971,173	953,5
971,704	-412,5
972,235	-123,73
972,767	685,22
973,3	421,03
973,832	-240,47
974,365	-611,15
974,899	697,5
975,433	619,68
975,967	-680,78
976,502	-297,81
977,037	502,95
977,572	1064,09
978,108	-406,35
978,644	-652,11
979,181	1207,45
979,718	767,13
980,255	-746,31
980,793	-301,9
981,331	-136,02
981,87	939,16
982,409	-400,21
982,948	-242,51
983,488	429,22
984,028	986,27
984,569	-365,39
985,11	-426,83
985,651	953,5
986,193	656,54
986,735	-635,72
987,278	-553,8
987,821	-37,72
988,364	402,6
988,908	-310,1
989,452	-576,33
989,997	-148,31
990,542	662,69
991,088	-482,13
991,633	-172,88
992,18	380,07
992,726	-15,19
993,273	-385,87
993,821	-262,99
994,369	539,81
994,917	873,63
995,465	-578,38
996,014	-609,1
996,564	754,85
997,114	232,62
997,664	-158,55
998,215	-557,9
998,766	634,02
999,317	7,34
999,869	-359,25
1000,421	-566,09
1000,974	715,94
1001,527	752,8
1002,081	-600,91
1002,635	-209,75
1003,189	519,33
1003,744	881,82
1004,299	-693,07
1004,854	-488,27
1005,41	920,73
1005,967	236,71
1006,523	-332,62
1007,081	-308,05
1007,638	537,76
1008,196	533,67
1008,755	-666,44
1009,313	-385,87
1009,873	699,55
1010,432	38,06
1010,992	-332,62
1011,553	-289,62
1012,114	494,76
1012,675	81,07
1013,237	-303,95
1013,799	-72,53
1014,361	724,13
1014,924	-136,02
1015,487	-676,68
1016,051	-414,54
1016,615	695,46
1017,18	568,48
1017,745	-488,27
1018,31	-33,62
1018,876	969,88
1019,442	613,54
1020,009	-426,83
1020,576	-709,45
1021,143	472,23
1021,711	740,51
1022,28	-428,88
1022,848	-508,75
1023,417	894,11
1023,987	365,73
1024,557	-508,75
1025,127	-480,08
1025,698	76,97
1026,269	142,5
1026,841	-643,92
1027,413	-381,78
1027,985	220,33
1028,558	371,88
1029,131	-637,77
1029,705	-367,44
1030,279	423,08
1030,854	468,13
1031,429	-684,87
1032,004	-60,24
1032,58	756,9
1033,156	44,2
1033,733	-656,2
1034,31	-512,85
1034,887	701,6
1035,465	720,03
1036,043	-852,81
1036,622	-498,51
1037,201	330,92
1037,781	695,46
1038,361	-654,16
1038,941	-748,36
1039,522	527,52
1040,103	775,33
1040,685	-594,76
1041,267	-226,13
1041,85	1234,07
1042,433	552,1
1043,016	-641,87
1043,6	-510,8
1044,184	-174,93
1044,769	711,84
1045,354	-420,69
1045,939	-658,25
1046,525	365,73
1047,111	437,41
1047,698	-338,77
1048,285	-779,08
1048,873	683,17
1049,461	-11,09
1050,049	-590,67
1050,638	-527,18
1051,228	31,91
1051,817	683,17
1052,407	-588,62
1052,998	-254,8
1053,589	537,76
1054,18	679,07
1054,772	-881,48
1055,365	-578,38
1055,957	507,04
1056,55	240,81
1057,144	-480,08
1057,738	-611,15
1058,333	218,28
1058,927	138,41
1059,523	-590,67
1060,118	-672,59
1060,715	27,82
1061,311	582,82
1061,908	-688,97
1062,506	-369,49
1063,103	416,93
1063,702	70,83
1064,3	-824,14
1064,9	-701,26
1065,499	1012,89
1066,099	126,12
1066,7	-529,23
1067,301	-758,6
1067,902	875,68
1068,504	775,33
1069,106	-308,05
1069,709	-451,41
1070,312	769,18
1070,915	568,48
1071,519	-525,13
1072,123	-310,1
1072,728	611,49
1073,333	292,01
1073,939	-193,36
1074,545	-482,13
1075,152	666,78
1075,759	175,27
1076,366	-721,74
1076,974	-332,62
1077,582	277,67
1078,191	789,66
1078,8	-537,42
1079,41	-865,1
1080,02	455,84
1080,63	404,64
1081,241	-117,59
1081,852	-838,47
1082,464	466,08
1083,076	363,69
1083,689	-562
1084,302	-531,28
1084,915	677,02
1085,529	492,71
1086,144	-598,86
1086,759	-461,65
1087,374	97,45
1087,99	359,59
1088,606	-658,25
1089,222	-512,85
1089,839	611,49
1090,457	345,25
1091,075	-441,17
1091,693	-779,08
1092,312	504,99
1092,931	963,74
1093,551	-627,53
1094,171	-164,69
1094,792	507,04
1095,413	105,64
1096,034	-602,96
1096,656	-488,27
1097,278	560,29
1097,901	316,58
1098,524	-570,19
1099,148	-336,72
1099,772	906,4
1100,397	425,12
1101,022	-693,07
1101,647	-463,69
1102,273	445,6
1102,899	677,02
1103,526	-889,67
1104,153	-340,82
1104,781	693,41
1105,409	791,71
1106,038	-586,57
1106,667	-750,41
1107,296	253,09
1107,926	218,28
1108,556	-86,87
1109,187	-557,9
1109,818	332,97
1110,45	687,26
1111,082	-512,85
1111,715	-557,9
1112,348	466,08
1112,981	267,43
1113,615	-285,52
1114,25	-475,98
1114,885	220,33
1115,52	130,22
1116,156	-697,16
1116,792	-578,38
1117,428	572,58
1118,066	199,85
1118,703	-283,47
1119,341	-502,61
1119,98	627,87
1120,618	826,53
1121,258	-729,93
1121,898	-746,31
1122,538	425,12
1123,179	-101,2
1123,82	-457,55
1124,461	-406,35
1125,103	650,4
1125,746	179,37
1126,389	-408,4
1127,032	-803,66
1127,676	541,86
1128,32	849,05
1128,965	-453,45
1129,61	-400,21
1130,256	136,36
1130,902	775,33
1131,549	-512,85
1132,196	-598,86
1132,844	715,94
1133,491	701,6
1134,14	-469,84
1134,789	-527,18
1135,438	1123,48
1136,088	52,39
1136,738	-740,17
1137,389	-688,97
1138,04	445,6
1138,692	930,97
1139,344	-650,06
1139,996	-648,01
1140,649	449,7
1141,303	648,35
1141,957	-406,35
1142,611	-533,33
1143,266	414,88
1143,921	414,88
1144,577	-617,29
1145,233	-518,99
1145,89	85,16
1146,547	578,72
1147,205	-713,55
1147,863	-482,13
1148,521	480,42
1149,18	619,68
1149,84	-791,37
1150,5	-693,07
1151,16	298,15
1151,821	674,98
1152,482	-518,99
1153,144	-72,53
1153,806	470,18
1154,469	490,66
1155,132	-691,02
1155,796	-469,84
1156,46	554,15
1157,124	851,1
1157,789	-688,97
1158,455	-578,38
1159,121	421,03
1159,787	109,74
1160,454	-457,55
1161,121	-480,08
1161,789	261,29
1162,457	617,63
1163,126	-516,94
1163,795	-525,13
1164,465	482,47
1165,135	289,96
1165,806	-496,46
1166,477	-424,78
1167,148	-308,05
1167,82	435,36
1168,493	-861
1169,166	-373,58
1169,839	38,06
1170,513	396,45
1171,187	-709,45
1171,862	-617,29
1172,537	310,44
1173,213	504,99
1173,889	-625,48
1174,566	-584,52
1175,243	722,08
1175,921	287,91
1176,599	-400,21
1177,278	-232,27
1177,957	-19,29
1178,636	847,01
1179,316	-377,68
1179,997	-846,66
1180,678	535,71
1181,359	773,28
1182,041	-713,55
1182,723	-725,83
1183,406	687,26
1184,089	171,18
1184,773	-738,12
1185,457	-783,18
1186,142	126,12
1186,827	1295,51
1187,513	-693,07
1188,199	-213,84
1188,886	85,16
1189,573	367,78
1190,26	-529,23
1190,948	-594,76
1191,637	85,16
1192,326	232,62
1193,015	-725,83
1193,705	-787,27
1194,396	105,64
1195,087	285,86
1195,778	-445,26
1196,47	-729,93
1197,162	433,32
1197,855	517,28
1198,548	-525,13
1199,242	-875,34
1199,936	457,89
1200,631	607,39
1201,326	-861
1202,022	-713,55
1202,718	783,52
1203,415	371,88
1204,112	-797,51
1204,81	-502,61
1205,508	128,17
1206,206	1113,24
1206,905	-645,96
1207,605	-742,22
1208,305	302,25
1209,005	521,38
1209,706	-703,31
1210,408	-594,76
1211,11	269,48
1211,812	461,99
1212,515	-547,66
1213,218	-586,57
1213,922	429,22
1214,627	316,58
1215,331	-574,28
1216,037	-486,22
1216,743	-88,92
1217,449	392,36
1218,156	-404,3
1218,863	-430,93
1219,571	216,23
1220,279	756,9
1220,988	-762,7
1221,697	-508,75
1222,406	531,62
1223,117	105,64
1223,827	-543,57
1224,538	-590,67
1225,25	302,25
1225,962	396,45
1226,675	-893,77
1227,388	-518,99
1228,101	201,9
1228,815	27,82
1229,53	-482,13
1230,245	-416,59
1230,961	406,69
1231,677	234,66
1232,393	-570,19
1233,11	-584,52
1233,828	939,16
1234,546	466,08
1235,264	-549,71
1235,983	-271,19
1236,702	1039,51
1237,422	324,77
1238,143	-324,43
1238,864	-627,53
1239,585	732,32
1240,307	-240,47
1241,029	-852,81
1241,752	-211,79
1242,476	605,35
1243,2	806,05
1243,924	-531,28
1244,649	-553,8
1245,374	728,22
1246,1	834,72
1246,826	-762,7
1247,553	-453,45
1248,28	457,89
1249,008	502,95
1249,737	-744,27
1250,465	-453,45
1251,195	523,43
1251,925	707,74
1252,655	-682,83
1253,386	-349,01
1254,117	265,38
1254,849	144,55
1255,581	-584,52
1256,314	-537,42
1257,047	724,13
1257,781	453,8
1258,515	-660,3
1259,25	-246,61
1259,985	390,31
1260,721	455,84
1261,457	-527,18
1262,194	-811,85
1262,931	199,85
1263,669	713,89
1264,407	-461,65
1265,146	-742,22
1265,885	373,92
1266,625	193,7
1267,365	-566,09
1268,106	-664,4
1268,847	461,99
1269,589	152,74
1270,331	-349,01
1271,074	-422,73
1271,817	429,22
1272,561	484,52
1273,305	-381,78
1274,05	-353,1
1274,795	337,06
1275,541	369,83
1276,287	-840,52
1277,034	-817,99
1277,781	13,48
1278,529	521,38
1279,277	-813,9
1280,026	-807,75
1280,775	695,46
1281,525	-496,46
1282,275	-813,9
1283,026	-228,18
1283,777	396,45
1284,529	480,42
1285,281	-570,19
1286,034	-881,48
1286,788	717,98
1287,541	400,55
1288,296	-854,86
1289,051	-369,49
1289,806	486,56
1290,562	556,19
1291,318	-656,2
1292,075	-518,99
1292,832	748,7
1293,59	859,29
1294,349	-691,02
1295,108	-545,61
1295,867	994,46
1296,627	560,29
1297,387	-729,93
1298,148	-486,22
1298,91	292,01
1299,672	97,45
1300,434	-547,66
1301,197	-760,65
1301,961	1346,71
1302,725	298,15
1303,489	-461,65
1304,254	-547,66
1305,02	455,84
1305,786	824,48
1306,552	-930,63
1307,319	-832,33
1308,087	863,39
1308,855	793,76
1309,624	-664,4
1310,393	-471,89
1311,162	-152,4
1311,933	615,59
1312,703	-617,29
1313,474	-377,68
1314,246	314,53
1315,018	646,3
1315,791	-330,58
1316,564	-768,84
1317,338	666,78
1318,112	199,85
1318,887	-684,87
1319,662	-488,27
1320,438	371,88
1321,214	224,42
1321,991	-437,07
1322,769	-717,64
1323,546	404,64
1324,325	72,87
1325,104	-734,03
1325,883	-500,56
1326,663	-170,83
1327,444	388,26
1328,224	-588,62
1329,006	-455,5
1329,788	478,37
1330,571	337,06
1331,354	-291,66
1332,137	-705,35
1332,921	674,98
1333,706	-62,29
1334,491	-363,34
1335,277	-623,44
1336,063	70,83
1336,849	208,04
1337,637	-721,74
1338,424	-664,4
1339,213	916,64
1340,001	781,47
1340,791	-721,74
1341,581	-375,63
1342,371	449,7
1343,162	273,57
1343,953	-508,75
1344,745	-492,37
1345,537	504,99
1346,33	570,53
1347,124	-549,71
1347,918	-330,58
1348,712	941,21
1349,507	457,89
1350,303	-564,04
1351,099	-416,59
1351,896	93,35
1352,693	-281,43
1353,49	-516,94
1354,289	-611,15
1355,087	519,33
1355,887	748,7
1356,686	-467,79
1357,487	-672,59
1358,288	76,97
1359,089	249
1359,891	-185,17
1360,693	-521,04
1361,496	-113,49
1362,3	199,85
1363,104	-652,11
1363,908	-611,15
1364,713	865,44
1365,519	920,73
1366,325	-662,35
1367,131	-770,89
1367,939	210,09
1368,746	844,96
1369,555	-1008,45
1370,363	-453,45
1371,173	789,66
1371,982	1207,45
1372,793	-650,06
1373,604	-848,71
1374,415	588,96
1375,227	795,81
1376,039	-803,66
1376,852	-701,26
1377,666	963,74
1378,48	404,64
1379,295	-684,87
1380,11	-797,51
1380,925	-25,43
1381,742	978,08
1382,558	-656,2
1383,376	-664,4
1384,193	482,47
1385,012	97,45
1385,831	-607,05
1386,65	-535,37
1387,47	150,7
1388,29	105,64
1389,111	-463,69
1389,933	-797,51
1390,755	707,74
1391,578	199,85
1392,401	-789,32
1393,225	-691,02
1394,049	871,58
1394,873	281,77
1395,699	-721,74
1396,525	-533,33
1397,351	642,21
1398,178	-64,34
1399,005	-607,05
1399,833	-1016,65
1400,662	615,59
1401,491	832,67
1402,321	-594,76
1403,151	-527,18
1403,981	472,23
1404,813	504,99
1405,644	-420,69
1406,477	-723,79
1407,309	199,85
1408,143	1139,87
1408,977	-734,03
1409,811	-613,2
1410,646	912,54
1411,482	830,62
1412,318	-500,56
1413,155	-664,4
1413,992	728,22
1414,829	11,43
1415,668	-600,91
1416,506	-353,1
1417,346	765,09
1418,186	441,51
1419,026	-664,4
1419,867	-910,15
1420,709	634,02
1421,551	490,66
1422,393	-820,04
1423,236	-406,35
1424,08	408,74
1424,924	289,96
1425,769	-725,83
1426,614	-617,29
1427,46	478,37
1428,307	214,18
1429,154	-789,32
1430,001	-738,12
1430,849	369,83
1431,698	240,81
1432,547	-805,71
1433,397	-856,9
1434,247	666,78
1435,098	838,81
1435,949	-547,66
1436,801	-537,42
1437,653	158,89
1438,506	588,96
1439,36	-906,06
1440,214	-774,99
1441,069	631,97
1441,924	423,08
1442,78	-676,68
1443,636	-791,37
1444,493	275,62
1445,35	431,27
1446,208	-402,26
1447,067	-635,72
1447,926	359,59
1448,785	775,33
1449,645	-641,87
1450,506	-693,07
1451,367	484,52
1452,229	-9,05
1453,091	-715,59
1453,954	-275,28
1454,818	273,57
1455,682	367,78
1456,546	-629,58
1457,412	-815,94
1458,277	722,08
1459,143	308,39
1460,01	-488,27
1460,878	-734,03
1461,745	298,15
1462,614	42,15
1463,483	-828,23
1464,352	-455,5
1465,223	738,46
1466,093	660,64
1466,964	-774,99
1467,836	-815,94
1468,709	824,48
1469,581	365,73
1470,455	-553,8
1471,329	-660,3
1472,203	85,16
1473,079	101,55
1473,954	-336,72
1474,831	-848,71
1475,707	257,19
1476,585	203,94
1477,463	-756,55
1478,341	-594,76
1479,22	29,87
1480,1	537,76
1480,98	-916,3
1481,861	-795,47
1482,742	595,11
1483,624	556,19
1484,506	-473,93
1485,389	-490,32
1486,273	203,94
1487,157	224,42
1488,041	-707,4
1488,926	-893,77
1489,812	437,41
1490,699	447,65
1491,585	-598,86
1492,473	-533,33
1493,361	-174,93
1494,249	224,42
1495,139	-496,46
1496,028	-635,72
1496,919	-0,85
1497,809	492,71
1498,701	-738,12
1499,593	-686,92
1500,485	228,52
1501,378	836,77
1502,272	-349,01
1503,166	-645,96
1504,061	699,55
1504,956	421,03
1505,852	-643,92
1506,749	-846,66
1507,646	455,84
1508,543	406,69
1509,442	-762,7
1510,34	-58,2
1511,24	1010,84
1512,14	285,86
1513,04	-713,55
1513,941	-750,41
1514,843	1186,97
1515,745	-43,86
1516,648	-639,82
1517,551	-844,62
1518,455	-275,28
1519,359	-226,13
1520,264	-832,33
1521,17	-832,33
1522,076	251,05
1522,983	509,09
1523,89	-815,94
1524,798	-359,25
1525,706	306,34
1526,615	1256,6
1527,525	-805,71
1528,435	-525,13
1529,346	568,48
1530,257	113,83
1531,169	-437,07
1532,081	-662,35
1532,994	994,46
1533,908	208,04
1534,822	-633,68
1535,737	-611,15
1536,652	328,87
1537,568	357,54
1538,484	-600,91
1539,401	-969,54
1540,319	928,92
1541,237	-70,48
1542,156	-848,71
1543,075	-662,35
1543,995	978,08
1544,916	1088,67
1545,837	-789,32
1546,758	-754,51
1547,68	654,5
1548,603	697,5
1549,527	-510,8
1550,451	-865,1
1551,375	486,56
1552,3	744,61
1553,226	-840,52
1554,152	-688,97
1555,079	812,19
1556,006	322,73
1556,934	-506,7
1557,863	-570,19
1558,792	914,59
1559,722	95,4
1560,652	-535,37
1561,583	-1000,26
1562,514	-37,72
1563,446	167,08
1564,379	-914,25
1565,312	-457,55
1566,246	760,99
1567,18	400,55
1568,115	-570,19
1569,051	-650,06
1569,987	834,72
1570,924	976,03
1571,861	-856,9
1572,799	-539,47
1573,737	591,01
1574,676	402,6
1575,616	-527,18
1576,556	-688,97
1577,497	-66,39
1578,438	89,26
1579,38	-697,16
1580,323	-615,24
1581,266	412,84
1582,21	789,66
1583,154	-721,74
1584,099	-799,56
1585,044	529,57
1585,99	685,22
1586,937	-467,79
1587,884	-598,86
1588,832	249
1589,78	883,87
1590,729	-639,82
1591,679	-381,78
1592,629	281,77
1593,58	498,85
1594,531	-605
1595,483	-518,99
1596,435	195,75
1597,388	27,82
1598,342	-318,29
1599,296	-480,08
1600,251	631,97
1601,207	775,33
1602,163	-666,44
1603,119	-731,98
1604,077	957,6
1605,034	900,25
1605,993	-498,51
1606,952	29,87
1607,911	244,9
1608,872	398,5
1609,832	-734,03
1610,794	-820,04
1611,756	648,35
1612,718	511,14
1613,681	-258,9
1614,645	-578,38
1615,609	834,72
1616,574	289,96
1617,54	-136,02
1618,506	-633,68
1619,472	726,18
1620,44	738,46
1621,408	-90,96
1622,376	-508,75
1623,345	386,21
1624,315	785,57
1625,285	-545,61
1626,256	-486,22
1627,227	517,28
1628,199	-31,57
1629,172	-385,87
1630,145	-373,58
1631,119	466,08
1632,094	1100,95
1633,069	-529,23
1634,044	-373,58
1635,02	339,11
1635,997	767,13
1636,975	-549,71
1637,953	-742,22
1638,931	1047,71
1639,911	52,39
1640,89	-738,12
1641,871	-619,34
1642,852	552,1
1643,833	421,03
1644,816	-684,87
1645,798	-811,85
1646,782	988,32
1647,766	136,36
1648,75	-670,54
1649,736	-602,96
1650,721	-13,14
1651,708	408,74
1652,695	-666,44
1653,682	-463,69
1654,671	572,58
1655,66	543,91
1656,649	-658,25
1657,639	-664,4
1658,63	-9,05
1659,621	244,9
1660,613	-836,42
1661,605	-731,98
1662,598	187,56
1663,592	265,38
1664,586	-897,86
1665,581	-725,83
1666,576	283,81
1667,572	310,44
1668,569	-639,82
1669,566	-799,56
1670,564	527,52
1671,563	797,85
1672,562	-717,64
1673,562	-297,81
1674,562	461,99
1675,563	494,76
1676,564	-349,01
1677,566	-549,71
1678,569	963,74
1679,572	-308,05
1680,576	-572,24
1681,581	-637,77
1682,586	234,66
1683,592	658,59
1684,598	-545,61
1685,605	-455,5
1686,613	650,4
1687,621	244,9
1688,63	-496,46
1689,639	-478,03
1690,649	210,09
1691,66	406,69
1692,671	-512,85
1693,683	-676,68
1694,696	128,17
1695,709	355,49
1696,722	-619,34
1697,737	-523,09
1698,752	60,59
1699,767	488,61
1700,783	-537,42
1701,8	-363,34
1702,818	398,5
1703,836	23,72
1704,854	-844,62
1705,873	-609,1
1706,893	220,33
1707,914	402,6
1708,935	-621,39
1709,956	-709,45
1710,979	285,86
1712,002	300,2
1713,025	-654,16
1714,049	-518,99
1715,074	560,29
1716,099	535,71
1717,125	-699,21
1718,152	-686,92
1719,179	68,78
1720,207	703,65
1721,235	-66,39
1722,265	-209,75
1723,294	314,53
1724,325	152,74
1725,355	-471,89
1726,387	-449,36
1727,419	285,86
1728,452	564,39
1729,485	-504,65
1730,519	-727,88
1731,554	72,87
1732,589	404,64
1733,625	-770,89
1734,662	-578,38
1735,699	-41,81
1736,736	726,18
1737,775	-611,15
1738,814	-611,15
1739,853	134,31
1740,894	175,27
1741,934	-553,8
1742,976	-643,92
1744,018	603,3
1745,061	228,52
1746,104	-648,01
1747,148	-701,26
1748,193	330,92
1749,238	373,92
1750,284	-521,04
1751,33	-789,32
1752,377	535,71
1753,425	969,88
1754,473	-547,66
1755,522	-594,76
1756,572	711,84
1757,622	545,95
1758,673	-744,27
1759,724	-457,55
1760,776	810,14
1761,829	711,84
1762,882	-281,43
1763,936	-756,55
1764,991	68,78
1766,046	990,36
1767,102	-457,55
1768,158	-783,18
1769,215	498,85
1770,273	474,28
1771,331	-502,61
1772,39	-729,93
1773,45	414,88
1774,51	423,08
1775,571	-869,19
1776,632	-183,12
1777,694	318,63
1778,757	476,32
1779,82	-455,5
1780,884	-480,08
1781,949	103,59
1783,014	439,46
1784,08	-879,43
1785,147	-559,95
1786,214	154,79
1787,282	195,75
1788,35	-365,39
1789,419	-371,54
1790,489	707,74
1791,559	298,15
1792,63	-699,21
1793,702	-457,55
1794,774	232,62
1795,847	634,02
1796,92	-344,91
1797,994	-467,79
1799,069	537,76
1800,144	1119,39
1801,22	-660,3
1802,297	-459,6
1803,374	19,63
1804,452	488,61
1805,531	-680,78
1806,61	-357,2
1807,69	548
1808,77	-172,88
1809,851	-451,41
1810,933	-844,62
1812,015	666,78
1813,098	29,87
1814,182	-562
1815,266	-535,37
1816,351	322,73
1817,437	322,73
1818,523	-455,5
1819,61	-512,85
1820,697	445,6
1821,785	1178,78
1822,874	-459,6
1823,963	-598,86
1825,053	185,51
1826,144	513,19
1827,235	-529,23
1828,327	-627,53
1829,42	343,21
1830,513	-185,17
1831,607	-664,4
1832,701	-631,63
1833,796	300,2
1834,892	728,22
1835,989	-764,75
1837,086	-713,55
1838,183	414,88
1839,282	431,27
1840,381	-559,95
1841,48	-674,64
1842,581	408,74
1843,682	851,1
1844,783	-232,27
1845,885	-369,49
1846,988	601,25
1848,092	498,85
1849,196	-510,8
1850,301	-447,31
1851,406	27,82
1852,512	986,27
1853,619	-562
1854,726	-715,59
1855,834	105,64
1856,943	640,16
1858,052	-627,53
1859,162	-486,22
1860,273	328,87
1861,384	808,09
1862,496	-471,89
1863,608	-623,44
1864,721	488,61
1865,835	240,81
1866,95	-609,1
1868,065	-652,11
1869,181	265,38
1870,297	584,87
1871,414	-336,72
1872,532	-811,85
1873,65	199,85
1874,769	232,62
1875,889	-660,3
1877,009	-260,95
1878,13	478,37
1879,252	832,67
1880,374	-523,09
1881,497	-705,35
1882,62	269,48
1883,745	195,75
1884,87	-791,37
1885,995	-815,94
1887,121	251,05
1888,248	99,5
1889,376	-766,79
1890,504	-631,63
1891,632	470,18
1892,762	117,93
1893,892	-709,45
1895,023	-451,41
1896,154	101,55
1897,286	249
1898,419	-684,87
1899,552	-512,85
1900,686	511,14
1901,821	486,56
1902,956	-559,95
1904,092	-447,31
1905,229	777,37
1906,366	582,82
1907,504	-660,3
1908,643	-650,06
1909,782	597,15
