Data from led_USB4H112691__7__11-28-59-539.txt Node

Date: Tue Dec 17 11:28:59 CET 2024
User: Etudiants TP
Spectrometer: USB4H11269
Trigger mode: 4
Integration Time (sec): 1,000000E0
Scans to average: 1
Electric dark correction enabled: true
Nonlinearity correction enabled: false
Boxcar width: 0
XAxis mode: Wavelengths
Number of Pixels in Spectrum: 3648
>>>>>Begin Spectral Data<<<<<
286,377	-1536,49
286,631	-1536,49
286,884	-1536,49
287,138	-1587,69
287,391	-1602,02
287,644	-774,64
287,896	-549,37
288,149	740,85
288,401	421,37
288,653	-532,98
288,905	-528,89
289,157	914,93
289,409	222,72
289,661	-363
289,912	-700,92
290,163	392,7
290,414	757,24
290,665	-594,42
290,916	-569,85
291,166	560,63
291,417	1097,2
291,667	-592,37
291,917	-307,71
292,167	458,23
292,417	472,57
292,666	-762,36
292,916	-643,57
293,165	439,8
293,414	740,85
293,663	-844,28
293,912	-725,49
294,16	765,43
294,408	654,84
294,657	-600,57
294,905	-481,78
295,153	564,73
295,4	552,44
295,648	-698,87
295,895	-635,38
296,143	97,79
296,39	775,67
296,637	-653,81
296,884	-610,81
297,13	560,63
297,377	818,68
297,623	-526,84
297,869	-324,09
298,115	753,14
298,361	603,64
298,606	-664,05
298,852	-524,79
299,097	523,77
299,342	1009,14
299,587	-352,76
299,832	-524,79
300,077	716,28
300,322	632,31
300,566	-602,61
300,81	-434,68
301,054	466,42
301,298	751,09
301,542	-180,73
301,785	-371,19
302,029	882,16
302,272	728,56
302,515	-682,49
302,758	-426,49
303,001	822,77
303,244	683,51
303,486	-469,5
303,729	-774,64
303,971	955,89
304,213	835,06
304,455	-856,56
304,696	-371,19
304,938	273,92
305,179	667,13
305,421	-412,15
305,662	-348,67
305,903	355,83
306,143	376,31
306,384	-406,01
306,625	-492,02
306,865	509,43
307,105	265,72
307,345	-453,11
307,585	-418,3
307,825	24,06
308,064	771,57
308,304	-516,6
308,543	-758,26
308,782	527,86
309,021	925,17
309,26	-270,84
309,499	-555,51
309,737	1002,99
309,976	773,62
310,214	-668,15
310,452	-586,23
310,69	1052,14
310,928	310,78
311,165	-672,25
311,403	-520,7
311,64	865,78
311,878	587,26
312,115	-537,08
312,351	-451,07
312,588	409,08
312,825	890,35
313,061	-659,96
313,298	77,31
313,534	290,3
313,77	763,38
314,006	-561,66
314,241	-565,75
314,477	652,79
314,713	1129,97
314,948	-561,66
315,183	224,76
315,418	890,35
315,653	579,06
315,888	-698,87
316,122	-373,24
316,357	310,78
316,591	843,25
316,825	-504,31
317,059	-496,12
317,293	908,79
317,527	441,85
317,76	-602,61
317,994	-381,43
318,227	747
318,46	1027,57
318,693	-643,57
318,926	-471,54
319,159	140,8
319,391	583,16
319,624	-750,07
319,856	-551,42
320,088	816,63
320,321	613,88
320,552	-188,93
320,784	-659,96
321,016	765,43
321,247	22,02
321,479	-274,94
321,71	-307,71
321,941	-133,63
322,172	1199,6
322,403	-563,7
322,633	-313,85
322,864	826,87
323,094	280,06
323,325	-16,9
323,555	-567,8
323,785	79,36
324,014	337,4
324,244	-471,54
324,474	-320
324,703	984,56
324,933	896,5
325,162	-348,67
325,391	-780,79
325,62	-35,33
325,848	798,2
326,077	-389,63
326,306	-393,72
326,534	732,66
326,762	959,99
326,99	-528,89
327,218	-131,58
327,446	728,56
327,674	65,02
327,901	-553,46
328,129	-625,14
328,356	757,24
328,583	151,04
328,81	-711,16
329,037	-346,62
329,264	488,95
329,491	851,44
329,717	-397,82
329,944	-561,66
330,17	298,49
330,396	220,67
330,622	-610,81
330,848	-320
331,074	507,38
331,299	1414,63
331,525	-631,29
331,75	-592,37
331,975	949,75
332,201	138,75
332,426	-760,31
332,65	-717,3
332,875	-119,29
333,1	392,7
333,324	-684,53
333,549	-651,77
333,773	396,79
333,997	495,1
334,221	-592,37
334,445	-578,04
334,668	620,02
334,892	1076,72
335,116	-315,9
335,339	-469,5
335,562	-41,47
335,785	445,95
336,008	-266,75
336,231	-604,66
336,454	-133,63
336,676	923,12
336,899	-510,46
337,121	-258,56
337,343	69,12
337,566	550,39
337,788	-465,4
338,009	-643,57
338,231	134,65
338,453	495,1
338,674	3010
338,896	-424,44
339,117	-61,95
339,338	1000,94
339,559	-682,49
339,78	-545,27
340,001	151,04
340,222	929,27
340,442	-528,89
340,663	-188,93
340,883	751,09
341,103	462,33
341,323	-569,85
341,543	-436,73
341,763	814,58
341,983	353,79
342,202	-786,93
342,422	-616,95
342,641	1134,06
342,861	433,66
343,08	-231,93
343,299	-639,48
343,518	665,08
343,736	699,89
343,955	-516,6
344,174	-696,82
344,392	790
344,61	138,75
344,829	-733,68
345,047	-475,64
345,265	638,45
345,483	863,73
345,7	-614,9
345,918	-47,62
346,136	77,31
346,353	830,96
346,57	-659,96
346,788	-553,46
347,005	450,04
347,222	7,68
347,438	-141,82
347,655	-506,36
347,872	50,69
348,088	1134,06
348,305	-317,95
348,521	-528,89
348,737	114,17
348,953	941,55
349,169	-102,91
349,385	-422,39
349,601	497,14
349,817	-109,05
350,032	-238,08
350,248	-242,17
350,463	1119,73
350,678	-176,64
350,893	-600,57
351,108	-610,81
351,323	105,98
351,538	849,4
351,753	-614,9
351,967	-627,19
352,182	841,2
352,396	167,42
352,61	-627,19
352,824	-551,42
353,038	609,78
353,252	792,05
353,466	-385,53
353,68	-487,93
353,894	429,56
354,107	179,71
354,32	-262,65
354,534	-561,66
354,747	646,65
354,96	-2,56
355,173	-274,94
355,386	-827,89
355,599	478,71
355,811	273,92
356,024	-641,53
356,236	-326,14
356,449	228,86
356,661	339,45
356,873	-649,72
357,085	-848,37
357,297	665,08
357,509	644,6
357,721	-553,46
357,933	-508,41
358,144	318,97
358,356	142,85
358,567	-322,04
358,778	-659,96
358,989	880,11
359,2	220,67
359,411	-406,01
359,622	-315,9
359,833	521,72
360,044	275,96
360,254	-514,55
360,465	-651,77
360,675	491
360,885	441,85
361,096	-688,63
361,306	-453,11
361,516	183,81
361,726	382,46
361,935	-805,36
362,145	-516,6
362,355	540,15
362,564	491
362,774	-684,53
362,983	-764,4
363,192	783,86
363,401	128,51
363,61	-666,1
363,819	-250,36
364,028	454,14
364,237	853,49
364,445	-479,74
364,654	-315,9
364,862	425,47
365,071	142,85
365,279	-379,39
365,487	-629,24
365,695	577,02
365,903	364,03
366,111	-694,77
366,319	-551,42
366,527	654,84
366,734	257,53
366,942	-387,58
367,149	-690,68
367,357	-459,26
367,564	986,61
367,771	-477,69
367,978	-668,15
368,185	58,88
368,392	284,16
368,599	-297,47
368,806	-535,03
369,013	-29,18
369,219	495,1
369,426	-745,97
369,632	-197,12
369,838	1166,83
370,044	484,86
370,251	-463,35
370,457	-430,59
370,663	822,77
370,868	374,27
371,074	-444,92
371,28	-580,09
371,485	-90,62
371,691	710,13
371,896	-659,96
372,102	-631,29
372,307	1046
372,512	888,31
372,717	-639,48
372,922	-143,87
373,127	110,08
373,332	357,88
373,537	-459,26
373,741	-422,39
373,946	564,73
374,151	132,61
374,355	-635,38
374,559	-416,25
374,764	257,53
374,968	-375,29
375,172	-616,95
375,376	-266,75
375,58	527,86
375,784	32,26
375,987	-717,3
376,191	-442,87
376,395	204,28
376,598	212,48
376,802	-567,8
377,005	-326,14
377,208	208,38
377,412	101,89
377,615	-754,16
377,818	-559,61
378,021	306,68
378,224	-172,54
378,426	-543,22
378,629	-750,07
378,832	759,28
379,034	601,59
379,237	-795,12
379,439	-764,4
379,642	667,13
379,844	564,73
380,046	-893,43
380,248	-674,29
380,45	-150,01
380,652	-190,97
380,854	-532,98
381,056	-596,47
381,258	300,54
381,459	503,29
381,661	-762,36
381,862	-295,42
382,064	-53,76
382,265	126,46
382,467	-647,67
382,668	-410,11
382,869	790
383,07	349,69
383,271	-403,96
383,472	-631,29
383,673	593,4
383,874	333,31
384,074	-428,54
384,275	-725,49
384,476	601,59
384,676	1056,24
384,876	-655,86
385,077	-489,98
385,277	749,04
385,477	931,31
385,677	-662,01
385,878	-412,15
386,078	251,39
386,278	273,92
386,477	-287,23
386,677	-180,73
386,877	468,47
387,077	708,09
387,276	-324,09
387,476	-471,54
387,675	366,07
387,875	980,47
388,074	-627,19
388,273	-516,6
388,472	818,68
388,671	-168,45
388,87	-602,61
389,069	-164,35
389,268	-223,74
389,467	89,6
389,666	-676,34
389,865	-289,28
390,063	593,4
390,262	775,67
390,461	-504,31
390,659	-647,67
390,857	712,18
391,056	693,75
391,254	-549,37
391,452	-471,54
391,65	833,01
391,849	546,3
392,047	-328,19
392,245	-111,1
392,442	210,43
392,64	570,87
392,838	-299,52
393,036	-440,83
393,233	302,59
393,431	253,44
393,629	-797,17
393,826	-438,78
394,023	269,82
394,221	-141,82
394,418	-406,01
394,615	-311,8
394,812	-53,76
395,01	802,29
395,207	-467,45
395,404	-651,77
395,601	900,59
395,797	497,14
395,994	-676,34
396,191	-553,46
396,388	232,96
396,584	632,31
396,781	-281,08
396,977	-12,8
397,174	577,02
397,37	-20,99
397,567	-389,63
397,763	-619
397,959	413,18
398,155	257,53
398,352	-414,2
398,548	-215,55
398,744	441,85
398,94	429,56
399,136	-729,59
399,331	-242,17
399,527	366,07
399,723	413,18
399,919	-225,79
400,114	-475,64
400,31	118,27
400,505	527,86
400,701	-340,47
400,896	-500,22
401,092	110,08
401,287	343,55
401,482	-641,53
401,678	-381,43
401,873	708,09
402,068	626,17
402,263	-313,85
402,458	-453,11
402,653	187,9
402,848	552,44
403,043	-442,87
403,237	-625,14
403,432	189,95
403,627	-133,63
403,822	-696,82
404,016	-406,01
404,211	146,94
404,405	675,32
404,6	-111,1
404,794	-217,6
404,989	556,54
405,183	259,58
405,377	-186,88
405,571	-29,18
405,766	593,4
405,96	404,99
406,154	-469,5
406,348	-279,04
406,542	585,21
406,736	585,21
406,93	-549,37
407,124	-201,21
407,318	290,3
407,511	570,87
407,705	-291,32
407,899	-367,1
408,092	728,56
408,286	523,77
408,48	-575,99
408,673	-471,54
408,867	192
409,06	566,78
409,253	-223,74
409,447	-297,47
409,64	765,43
409,833	595,45
410,026	-221,69
410,22	-111,1
410,413	908,79
410,606	497,14
410,799	-545,27
410,992	-393,72
411,185	409,08
411,378	1129,97
411,571	-317,95
411,764	-291,32
411,956	783,86
412,149	615,93
412,342	-143,87
412,534	-233,98
412,727	710,13
412,92	540,15
413,112	-127,49
413,305	-0,51
413,497	925,17
413,69	880,11
413,882	-184,83
414,075	52,74
414,267	712,18
414,459	579,06
414,652	-221,69
414,844	-233,98
415,036	736,76
415,228	1054,19
415,42	73,21
415,612	-291,32
415,804	1215,98
415,997	878,07
416,188	13,82
416,38	46,59
416,572	421,37
416,764	929,27
416,956	-166,4
417,148	-82,43
417,34	636,41
417,531	355,83
417,723	-37,38
417,915	-92,67
418,107	482,81
418,298	847,35
418,49	103,93
418,681	185,85
418,873	1310,19
419,064	699,89
419,256	99,84
419,447	3,58
419,639	1009,14
419,83	1209,84
420,021	198,14
420,213	28,16
420,404	859,63
420,595	1019,38
420,786	304,64
420,978	308,73
421,169	1150,45
421,36	800,24
421,551	249,34
421,742	142,85
421,933	1537,51
422,124	1240,56
422,315	329,21
422,506	372,22
422,697	1203,69
422,888	830,96
423,079	515,58
423,27	251,39
423,461	1005,04
423,652	912,88
423,842	308,73
424,033	472,57
424,224	1367,53
424,415	1744,36
424,605	581,11
424,796	378,36
424,987	1365,48
425,177	1404,39
425,368	335,35
425,558	267,77
425,749	1185,26
425,939	1273,32
426,13	849,4
426,32	767,48
426,511	1111,54
426,701	1105,39
426,892	708,09
427,082	599,54
427,272	1168,88
427,463	1420,78
427,653	847,35
427,843	927,22
428,034	2014,69
428,224	1789,41
428,414	650,74
428,604	929,27
428,795	1846,76
428,985	1873,38
429,175	1304,04
429,365	1164,78
429,555	1723,88
429,745	1650,15
429,935	998,9
430,126	1218,03
430,316	2076,13
430,506	2022,88
430,696	1177,07
430,886	1367,53
431,076	2127,33
431,266	1943,01
431,456	1592,81
431,645	1383,91
431,835	2043,36
432,025	2256,35
432,215	1211,89
432,405	1631,72
432,595	2231,77
432,785	2117,09
432,975	1514,98
433,164	1453,55
433,354	2141,66
433,544	2510,3
433,734	1400,3
433,923	1840,61
434,113	2418,14
434,303	2553,31
434,493	1914,34
434,682	1895,91
434,872	2876,88
435,062	2430,43
435,251	1914,34
435,441	2004,45
435,631	3249,61
435,82	2848,21
436,01	2084,32
436,2	2207,2
436,389	2825,68
436,579	3497,42
436,768	2598,36
436,958	2743,77
437,147	3210,7
437,337	3610,06
437,527	2772,44
437,716	2495,96
437,906	3915,2
438,095	3347,92
438,285	2813,4
438,474	2928,08
438,664	4017,6
438,853	3804,61
439,043	3257,81
439,232	2940,37
439,422	4103,62
439,611	4109,76
439,8	3079,63
439,99	3585,48
440,179	4216,26
440,369	4574,65
440,558	3337,68
440,748	3612,1
440,937	4242,88
441,126	4091,33
441,316	3927,49
441,505	3747,27
441,695	4867,51
441,884	5307,82
442,073	3974,6
442,263	3943,88
442,452	4697,53
442,642	5273,01
442,831	4099,52
443,02	4574,65
443,21	5608,87
443,399	6108,58
443,588	4627,9
443,778	4625,85
443,967	6114,72
444,156	5545,39
444,346	4718,01
444,535	4631,99
444,725	6225,31
444,914	5709,22
445,103	4918,71
445,293	5057,97
445,482	6198,69
445,671	6036,9
445,861	5295,54
446,05	5246,38
446,239	6309,28
446,429	5938,6
446,618	5246,38
446,807	5553,58
446,997	6487,45
447,186	6311,33
447,376	5408,17
447,565	5520,81
447,754	6442,4
447,944	6641,05
448,133	5522,86
448,322	5299,63
448,512	6229,41
448,701	6501,79
448,891	5152,18
449,08	5371,31
449,269	5621,16
449,459	5737,9
449,648	5238,19
449,838	5234,1
450,027	5803,43
450,217	5668,27
450,406	5180,85
450,595	5359,02
450,785	6020,52
450,974	6067,62
451,164	4963,76
451,353	5176,75
451,543	5993,89
451,732	6147,49
451,922	4801,97
452,111	4976,05
452,301	5318,06
452,49	5291,44
452,68	4316,61
452,869	5074,35
453,059	5168,56
453,249	5787,05
453,438	4287,93
453,628	4574,65
453,817	5352,88
454,007	5141,94
454,197	4271,55
454,386	4455,87
454,576	5606,83
454,765	5455,28
454,955	4322,75
455,145	4050,37
455,334	4937,14
455,524	4502,97
455,714	4462,01
455,904	3945,92
456,093	5445,04
456,283	4971,96
456,473	4005,31
456,663	3970,5
456,852	4599,23
457,042	4824,5
457,232	4052,42
457,422	4365,76
457,612	4763,06
457,802	5062,07
457,991	3460,56
458,181	3509,71
458,371	4906,42
458,561	4652,47
458,751	3777,99
458,941	3653,06
459,131	4259,26
459,321	4376
459,511	3812,81
459,701	3517,9
459,891	4189,63
460,081	3937,73
460,271	3579,34
460,461	3298,77
460,651	5066,16
460,841	5057,97
461,032	3401,16
461,222	3526,09
461,412	4044,23
461,602	5168,56
461,792	3331,53
461,983	3184,08
462,173	4263,36
462,363	4781,5
462,554	3421,64
462,744	3362,25
462,934	4476,35
463,125	4206,02
463,315	3020,24
463,505	3399,12
463,696	4214,21
463,886	3853,77
464,077	3026,39
464,267	3163,6
464,458	4363,71
464,648	3630,54
464,839	3329,49
465,03	3161,55
465,22	3724,74
465,411	4296,13
465,601	3141,07
465,792	2989,52
465,983	3767,75
466,174	4160,96
466,364	2829,78
466,555	3065,3
466,746	3952,07
466,937	3741,13
467,128	2848,21
467,319	2940,37
467,51	4136,38
467,701	4787,64
467,891	2962,9
468,082	2715,09
468,274	3800,52
468,465	3349,96
468,656	3173,84
468,847	2696,66
469,038	3362,25
469,229	3620,3
469,42	2979,28
469,612	2717,14
469,803	3900,87
469,994	4011,46
470,185	3012,05
470,377	2768,34
470,568	3775,94
470,76	3708,36
470,951	2665,94
471,142	2981,33
471,334	3960,26
471,526	3898,82
471,717	3093,97
471,909	2706,9
472,1	3616,2
472,292	3833,29
472,484	2702,81
472,675	2911,7
472,867	3802,57
473,059	4074,95
473,251	3010
473,443	2899,41
473,635	3767,75
473,826	3915,2
474,018	2692,57
474,21	2913,75
474,402	3964,36
474,595	4359,61
474,787	2799,06
474,979	3241,42
475,171	3431,88
475,363	3286,48
475,555	2620,89
475,748	2854,36
475,94	3972,55
476,132	3472,84
476,325	2932,18
476,517	3288,53
476,71	4500,92
476,902	3565
477,095	2764,25
477,287	3145,17
477,48	4093,38
477,673	3941,83
477,865	3046,87
478,058	2860,5
478,251	4033,99
478,444	4429,24
478,636	3114,45
478,829	2966,99
479,022	4064,71
479,215	4109,76
479,408	3157,46
479,601	3595,72
479,794	3722,7
479,988	3812,81
480,181	3239,37
480,374	3020,24
480,567	4124,1
480,76	4650,43
480,954	3087,82
481,147	2766,29
481,341	4025,79
481,534	3816,9
481,728	3358,16
481,921	3403,21
482,115	4388,29
482,308	4494,78
482,502	3055,06
482,696	3067,35
482,89	4844,98
483,084	4222,4
483,277	3481,03
483,471	3493,32
483,665	4382,14
483,859	5211,57
484,053	3040,72
484,247	3141,07
484,442	4220,35
484,636	4115,91
484,83	3235,28
485,024	3501,51
485,219	4251,07
485,413	4064,71
485,608	3364,3
485,802	3501,51
485,997	4552,12
486,191	4181,44
486,386	3331,53
486,58	3296,72
486,775	4419
486,97	4656,57
487,165	3524,04
487,36	3554,76
487,555	4369,85
487,75	4120
487,945	3526,09
488,14	3325,39
488,335	4005,31
488,53	4160,96
488,725	3476,94
488,92	3614,15
489,116	4666,81
489,311	4365,76
489,507	3337,68
489,702	3958,21
489,898	4801,97
490,093	3958,21
490,289	4017,6
490,485	3554,76
490,68	3988,93
490,876	4877,75
491,072	3497,42
491,268	3694,02
491,464	4695,48
491,66	4556,22
491,856	3673,54
492,052	4013,51
492,248	4795,83
492,445	4836,79
492,641	3503,56
492,837	3681,74
493,034	4865,46
493,23	5143,99
493,427	4079,04
493,623	3685,83
493,82	4693,43
494,017	5047,73
494,214	3855,81
494,41	3560,91
494,607	4701,62
494,804	4316,61
495,001	3853,77
495,198	3804,61
495,395	4910,52
495,593	4830,65
495,79	3724,74
495,987	3718,6
496,184	4083,14
496,382	4828,6
496,579	3515,85
496,777	3653,06
496,974	5320,11
497,172	4959,67
497,37	3888,58
497,568	3648,97
497,766	5438,89
497,963	4631,99
498,161	3861,96
498,359	3927,49
498,558	5150,13
498,756	5043,64
498,954	3599,82
499,152	4093,38
499,351	4998,58
499,549	4918,71
499,747	3864,01
499,946	3812,81
500,145	4613,56
500,343	4580,79
500,542	3642,82
500,741	3796,42
500,94	4955,57
501,139	5148,08
501,338	3816,9
501,537	4013,51
501,736	5240,24
501,935	4853,17
502,134	3653,06
502,334	3780,04
502,533	4992,44
502,733	4781,5
502,932	3907,01
503,132	3757,51
503,331	4636,09
503,531	5033,4
503,731	3769,8
503,931	3769,8
504,131	4435,39
504,331	5031,35
504,531	3757,51
504,731	3849,67
504,931	4877,75
505,132	4779,45
505,332	3835,33
505,532	3702,22
505,733	4853,17
505,933	5086,64
506,134	3886,53
506,335	3583,43
506,536	4263,36
506,736	4834,74
506,937	3669,45
507,138	3526,09
507,34	5557,68
507,541	4646,33
507,742	3900,87
507,943	3438,03
508,145	4689,34
508,346	4058,56
508,548	3491,27
508,749	3556,81
508,951	4099,52
509,153	4398,52
509,354	3550,67
509,556	3859,91
509,758	4689,34
509,96	3986,88
510,163	3821
510,365	3575,24
510,567	4066,75
510,769	4230,59
510,972	3534,28
511,174	3818,95
511,377	4050,37
511,58	5275,06
511,782	3354,06
511,985	3202,51
512,188	4988,34
512,391	4392,38
512,594	3354,06
512,797	3562,95
513,001	4804,02
513,204	4931
513,407	3370,44
513,611	3231,18
513,814	4443,58
514,018	4617,66
514,222	3452,36
514,425	3331,53
514,629	4371,9
514,833	4156,86
515,037	3392,97
515,241	3173,84
515,445	3909,06
515,65	3952,07
515,854	3360,2
516,059	3259,85
516,263	4361,66
516,468	4267,45
516,672	3165,65
516,877	3210,7
517,082	3702,22
517,287	4191,68
517,492	3497,42
517,697	3261,9
517,902	4257,22
518,107	3986,88
518,313	3251,66
518,518	3157,46
518,724	4644,28
518,929	4074,95
519,135	3368,4
519,341	3055,06
519,547	4083,14
519,753	4341,18
519,959	2981,33
520,165	3022,29
520,371	4074,95
520,577	4636,09
520,784	3005,91
520,99	3524,04
521,197	4324,8
521,404	4070,85
521,61	2950,61
521,817	2813,4
522,024	4648,38
522,231	3864,01
522,438	2780,63
522,645	3554,76
522,853	3847,62
523,06	4201,92
523,268	3190,22
523,475	3132,88
523,683	3804,61
523,891	4099,52
524,098	2848,21
524,306	3266
524,514	3972,55
524,722	3990,98
524,931	3268,05
525,139	3149,26
525,347	3478,99
525,556	3925,44
525,764	3145,17
525,973	3317,2
526,182	4222,4
526,391	3659,21
526,6	3120,59
526,809	3218,89
527,018	4013,51
527,227	4265,41
527,436	3231,18
527,646	3075,54
527,855	4273,6
528,065	3980,74
528,275	3067,35
528,484	3145,17
528,694	4312,51
528,904	4074,95
529,114	2985,43
529,325	3298,77
529,535	3759,56
529,745	4042,18
529,956	2938,32
530,166	3294,67
530,377	4091,33
530,588	4496,83
530,799	3470,8
531,01	3120,59
531,221	4369,85
531,432	4314,56
531,643	3315,15
531,855	3601,87
532,066	4435,39
532,278	4144,58
532,489	3362,25
532,701	3128,78
532,913	4537,79
533,125	4425,15
533,337	3100,11
533,549	3145,17
533,762	4390,33
533,974	3788,23
534,186	3073,49
534,399	3341,77
534,612	4535,74
534,825	4242,88
535,037	3294,67
535,25	3616,2
535,464	4083,14
535,677	4636,09
535,89	3290,57
536,104	3534,28
536,317	4216,26
536,531	4210,11
536,744	3722,7
536,958	3542,47
537,172	4365,76
537,386	4289,98
537,6	3468,75
537,815	3569,1
538,029	4644,28
538,244	4767,16
538,458	3280,33
538,673	3493,32
538,888	4629,95
539,103	4834,74
539,318	3829,19
539,533	3534,28
539,748	4361,66
539,963	4246,98
540,179	3388,88
540,394	3411,4
540,61	3980,74
540,826	4249,02
541,042	3587,53
541,258	3405,26
541,474	5197,23
541,69	4459,96
541,906	3595,72
542,123	3468,75
542,339	4521,4
542,556	4345,28
542,773	3384,78
542,99	3669,45
543,207	4408,76
543,424	4296,13
543,641	3800,52
543,858	4029,89
544,076	4271,55
544,293	4160,96
544,511	3487,18
544,729	3526,09
544,947	4380,09
545,165	4378,05
545,383	3575,24
545,601	3511,75
545,819	4595,13
546,038	4457,92
546,256	3730,89
546,475	3468,75
546,694	5211,57
546,913	4742,58
547,132	4173,25
547,351	3755,46
547,57	4132,29
547,79	4160,96
548,009	3612,1
548,229	3491,27
548,449	4163,01
548,668	4959,67
548,888	3743,17
549,109	3622,34
549,329	4748,73
549,549	4818,36
549,77	3681,74
549,99	3706,31
550,211	4943,28
550,432	5180,85
550,653	3483,08
550,874	3829,19
551,095	5344,69
551,316	4312,51
551,538	3626,44
551,759	3800,52
551,981	4500,92
552,203	4748,73
552,424	3560,91
552,646	3958,21
552,869	4529,59
553,091	4439,48
553,313	3816,9
553,536	3814,85
553,758	4931
553,981	4423,1
554,204	3536,33
554,427	3921,35
554,65	4861,37
554,873	4169,15
555,097	3417,55
555,32	3722,7
555,544	4838,84
555,768	4771,26
555,992	3595,72
556,216	3562,95
556,44	4210,11
556,664	4836,79
556,888	4152,77
557,113	3562,95
557,337	5086,64
557,562	5074,35
557,787	3601,87
558,012	3911,11
558,237	4631,99
558,462	4550,07
558,688	3952,07
558,913	3939,78
559,139	4281,79
559,365	4959,67
559,591	3632,58
559,817	3784,13
560,043	4959,67
560,269	5211,57
560,496	4324,8
560,722	3927,49
560,949	5287,34
561,176	4312,51
561,403	3988,93
561,63	4150,72
561,857	4388,29
562,084	4591,03
562,312	3800,52
562,539	4156,86
562,767	5375,41
562,995	4654,52
563,223	4158,91
563,451	4107,71
563,679	4775,35
563,908	4967,86
564,136	4216,26
564,365	4570,55
564,594	4486,59
564,823	6296,99
565,052	4324,8
565,281	4152,77
565,51	5135,79
565,74	5025,2
565,969	4148,67
566,199	4363,71
566,429	5371,31
566,659	5508,52
566,889	4419
567,119	4507,07
567,35	5918,12
567,58	5815,72
567,811	4742,58
568,042	4650,43
568,273	5367,21
568,504	5938,6
568,735	4726,2
568,966	4791,73
569,198	5764,52
569,43	6196,64
569,661	4967,86
569,893	5221,81
570,125	6442,4
570,358	6221,22
570,59	5109,17
570,822	5158,32
571,055	6229,41
571,288	6546,84
571,521	5166,51
571,754	5238,19
571,987	6542,75
572,22	6286,75
572,454	5670,31
572,687	5438,89
572,921	5860,77
573,155	6495,64
573,389	5920,17
573,623	6098,34
573,858	6501,79
574,092	6890,9
574,327	6155,68
574,561	6378,91
574,796	6469,02
575,031	7093,65
575,266	6069,67
575,502	6022,56
575,737	7558,54
575,973	7044,5
576,209	6428,06
576,445	6432,16
576,681	7054,74
576,917	7431,57
577,153	6557,08
577,39	6630,81
577,626	7593,36
577,863	7480,72
578,1	6722,97
578,337	7064,98
578,574	7724,43
578,812	8170,88
579,049	7294,35
579,287	7157,14
579,525	8430,98
579,763	8410,5
580,001	7304,59
580,239	7574,92
580,478	9141,62
580,716	8465,79
580,955	7992,71
581,194	7970,18
581,433	9153,91
581,672	8807,8
581,911	8076,68
582,151	7992,71
582,39	8818,04
582,63	9698,67
582,87	8301,95
583,11	8582,53
583,35	8820,09
583,591	9530,73
583,831	8781,18
584,072	9047,41
584,313	9835,88
584,554	9887,08
584,795	9284,98
585,036	9170,29
585,277	10884,44
585,519	10386,79
585,761	9252,21
586,003	9432,43
586,245	10661,21
586,487	11013,46
586,729	10063,21
586,972	9934,18
587,215	11859,28
587,457	10693,98
587,7	10181,99
587,944	10196,32
588,187	10868,06
588,43	11298,13
588,674	10397,03
588,918	10325,35
589,162	11818,32
589,406	11515,22
589,65	10773,85
589,894	11627,85
590,139	12260,68
590,384	12236,1
590,629	10884,44
590,874	11255,12
591,119	11554,13
591,364	12754,24
591,61	11365,71
591,855	11335
592,101	13237,56
592,347	13045,05
592,593	11908,43
592,84	12293,44
593,086	13792,56
593,333	12705,09
593,58	12135,75
593,827	12252,49
594,074	13595,95
594,321	13423,92
594,568	12662,08
594,816	12488
595,064	13684,02
595,312	13856,04
595,56	12803,39
595,808	13253,94
596,057	14030,12
596,305	14171,43
596,554	13212,98
596,803	13514,03
597,052	14519,59
597,301	14996,76
597,551	13643,06
597,8	14050,6
598,05	14867,74
598,3	14748,96
598,55	14093,61
598,8	14075,18
599,051	14822,69
599,301	15238,42
599,552	13911,34
599,803	14599,46
600,054	15557,91
600,305	15645,97
600,556	15027,48
600,808	14843,17
601,06	15369,49
601,312	15983,88
601,564	15076,63
601,816	14988,57
602,068	16585,99
602,321	16651,52
602,574	15254,81
602,827	15002,91
603,08	16305,42
603,333	16588,03
603,587	15277,33
603,84	15764,75
604,094	17163,51
604,348	16647,43
604,602	15852,81
604,856	16176,39
605,111	17097,98
605,365	17198,33
605,62	16467,2
605,875	16108,81
606,13	17263,86
606,386	17327,35
606,641	16526,6
606,897	16512,26
607,153	17280,25
607,409	18009,33
607,665	16237,83
607,921	16907,52
608,178	17618,16
608,435	17880,3
608,692	16993,53
608,949	17014,01
609,206	18367,72
609,463	18152,68
609,721	17272,06
609,979	17534,2
610,237	18218,22
610,495	18836,7
610,753	17689,84
611,012	17403,13
611,27	19000,54
611,529	18689,25
611,788	18074,86
612,047	17784,05
612,307	18246,89
612,566	19088,6
612,826	17861,87
613,086	17765,62
613,346	18670,82
613,606	19115,23
613,867	18083,05
614,127	18410,73
614,388	18869,47
614,649	19440,86
614,91	18072,81
615,172	18367,72
615,433	18808,03
615,695	19018,97
615,957	18392,3
616,219	18625,76
616,481	19655,89
616,743	19315,93
617,006	18005,23
617,269	18642,15
617,532	19541,21
617,795	19537,11
618,058	18439,4
618,322	18713,83
618,586	19688,66
618,849	19244,25
619,114	18844,9
619,378	18351,34
619,642	19455,19
619,907	19799,25
620,172	18531,56
620,437	19178,72
620,702	19838,16
620,967	19516,63
621,233	18851,04
621,499	18402,54
621,765	19643,6
622,031	19754,19
622,297	18459,88
622,564	19039,45
622,83	19535,06
623,097	20534,47
623,364	19094,75
623,631	19107,04
623,899	19827,92
624,166	19875,02
624,434	18922,72
624,702	18705,63
624,97	20079,82
625,239	19207,39
625,507	18631,91
625,776	18892
626,045	19559,64
626,314	19981,52
626,584	18650,34
626,853	18416,87
627,123	19426,52
627,393	19002,59
627,663	18572,52
627,933	18519,27
628,204	19678,42
628,474	19993,81
628,745	18191,59
629,016	18978,01
629,287	19596,5
629,559	19258,59
629,83	18511,08
630,102	18535,65
630,374	19234,01
630,646	19793,11
630,919	18453,73
631,191	18595,04
631,464	19231,96
631,737	18828,51
632,01	18113,77
632,284	18070,76
632,557	19752,15
632,831	19340,5
633,105	18169,07
633,379	17847,54
633,654	18423,01
633,928	19016,93
634,203	18173,16
634,478	17581,3
634,753	18685,15
635,028	18963,68
635,304	18005,23
635,58	17888,5
635,856	18703,59
636,132	18578,66
636,408	17718,51
636,685	17579,25
636,961	18365,67
637,238	18353,38
637,515	17771,76
637,793	17394,93
638,07	18848,99
638,348	18156,78
638,626	17630,45
638,904	17595,64
639,182	17861,87
639,461	18007,28
639,74	17612,02
640,019	17358,07
640,298	17296,63
640,577	18175,21
640,857	17003,77
641,136	17222,91
641,416	17755,38
641,696	18316,52
641,977	17014,01
642,257	17304,82
642,538	18066,67
642,819	18130,16
643,1	16430,34
643,382	16680,19
643,663	17704,18
643,945	17753,33
644,227	16710,91
644,509	16418,05
644,792	17933,55
645,074	17480,95
645,357	16243,98
645,64	16512,26
645,923	17325,3
646,207	17067,26
646,49	16360,71
646,774	15965,45
647,058	16878,85
647,342	17370,36
647,627	15996,17
647,911	15906,06
648,196	16928
648,481	17059,07
648,767	16067,85
649,052	15904,01
649,338	16180,49
649,624	16139,53
649,91	15303,96
650,196	15486,23
650,483	16796,93
650,77	16887,04
651,057	15516,95
651,344	15645,97
651,631	16401,67
651,919	15861,01
652,207	15334,68
652,495	15052,06
652,783	15996,17
653,071	16237,83
653,36	14744,86
653,649	14884,12
653,938	15639,83
654,227	15840,53
654,517	15240,47
654,806	14591,27
655,096	15332,63
655,387	15813,9
655,677	14943,52
655,968	14564,64
656,258	15281,43
656,549	15906,06
656,841	14552,35
657,132	14423,33
657,424	15283,48
657,716	15219,99
658,008	14175,53
658,3	13987,11
658,592	15009,05
658,885	15103,26
659,178	14142,76
659,471	13516,08
659,765	14327,08
660,058	14898,46
660,352	13774,13
660,646	13800,75
660,94	14986,52
661,235	14621,98
661,53	13897
661,824	13389,11
662,12	14337,32
662,415	13751,6
662,711	13102,39
663,006	13491,51
663,302	13976,87
663,599	13657,39
663,895	13096,25
664,192	13233,46
664,489	14085,42
664,786	14365,99
665,083	12703,04
665,381	12830,01
665,678	13743,41
665,976	13616,43
666,275	12444,99
666,573	12694,85
666,872	13204,79
667,171	13413,68
667,47	12553,54
667,769	11959,63
668,069	13567,28
668,368	13235,51
668,668	11889,99
668,969	11842,89
669,269	12784,96
669,57	12561,73
669,871	11918,67
670,172	12074,31
670,473	13096,25
670,775	13006,14
671,077	11492,69
671,379	11730,25
671,681	12569,92
671,983	12395,84
672,286	11394,39
672,589	11418,96
672,892	12160,33
673,196	12303,68
673,499	11193,69
673,803	11490,64
674,107	12012,87
674,411	12113,22
674,716	11349,33
675,021	11181,4
675,326	11834,7
675,631	11916,62
675,936	10507,62
676,242	10845,53
676,548	11400,53
676,854	12107,08
677,16	10366,31
677,467	10687,84
677,774	11416,91
678,081	11388,24
678,388	10886,49
678,696	10454,37
679,004	11517,26
679,312	11711,82
679,62	10177,89
679,928	10218,85
680,237	11083,09
680,546	10575,2
680,855	10356,07
681,164	9907,56
681,474	10724,7
681,784	10841,43
682,094	9932,14
682,404	9608,56
682,715	10782,04
683,026	10087,78
683,337	9522,54
683,648	9694,57
683,959	10739,04
684,271	10474,85
684,583	9301,36
684,895	9252,21
685,208	10415,46
685,52	10442,08
685,833	9405,81
686,146	9028,98
686,46	10227,04
686,773	9848,17
687,087	8916,34
687,401	8945,02
687,716	10067,3
688,03	9907,56
688,345	8539,52
688,66	8889,72
688,975	9723,24
689,291	9645,42
689,607	8820,09
689,923	8459,65
690,239	9370,99
690,555	9614,7
690,872	8506,75
691,189	8080,77
691,506	9235,83
691,824	9432,43
692,142	7931,27
692,459	8138,12
692,778	8691,07
693,096	9096,57
693,415	8179,08
693,734	8113,54
694,053	8613,24
694,372	8215,94
694,692	7421,33
695,012	7828,87
695,332	8164,74
695,652	8430,98
695,973	7716,23
696,294	7552,4
696,615	8269,19
696,936	8701,31
697,258	6946,2
697,579	7499,15
697,902	8000,9
698,224	7902,6
698,546	7146,9
698,869	7003,54
699,192	7900,55
699,516	8220,03
699,839	6921,62
700,163	7130,52
700,487	7443,85
700,811	8500,61
701,136	6608,28
701,461	6892,95
701,786	7759,24
702,111	8271,23
702,436	6528,41
702,762	6708,63
703,088	7671,18
703,415	8312,19
703,741	6489,5
704,068	6409,63
704,395	7175,57
704,722	7742,86
705,05	6299,04
705,377	6282,66
705,705	7318,93
706,034	6938,01
706,362	5889,45
706,691	5793,19
707,02	7335,31
707,349	7388,56
707,679	6241,7
708,009	5807,53
708,339	6880,66
708,669	6722,97
709	5701,03
709,33	5707,18
709,661	6774,17
709,993	6419,87
710,324	6012,32
710,656	5574,06
710,988	6811,03
711,321	6815,13
711,653	5320,11
711,986	5639,59
712,319	5852,58
712,652	6632,86
712,986	5666,22
713,32	5217,71
713,654	6679,96
713,988	6561,18
714,323	5299,63
714,658	5240,24
714,993	6016,42
715,328	6104,48
715,664	5217,71
716	5467,56
716,336	6405,53
716,673	5713,32
717,009	5234,1
717,346	5133,75
717,683	6466,97
718,021	5828,01
718,359	4685,24
718,697	5060,02
719,035	5440,94
719,373	5459,37
719,712	5078,45
720,051	4443,58
720,39	6047,14
720,73	5524,91
721,07	4464,06
721,41	4605,37
721,75	6036,9
722,091	5789,1
722,432	4378,05
722,773	4804,02
723,114	5377,45
723,456	5500,33
723,798	4408,76
724,14	4476,35
724,482	5019,06
724,825	5164,47
725,168	4398,52
725,511	4306,37
725,855	5109,17
726,198	4931
726,542	3888,58
726,887	4410,81
727,231	5262,77
727,576	4664,76
727,921	4228,54
728,266	3841,48
728,612	4980,15
728,958	5143,99
729,304	4017,6
729,651	4332,99
729,997	4539,83
730,344	4883,89
730,691	3771,85
731,039	4111,81
731,387	4849,08
731,735	4320,7
732,083	3986,88
732,431	3941,83
732,78	4498,88
733,129	3870,15
733,479	3546,57
733,828	3708,36
734,178	4361,66
734,528	3882,44
734,879	3708,36
735,23	3493,32
735,581	4539,83
735,932	4160,96
736,283	3444,17
736,635	3282,38
736,987	4820,41
737,34	4627,9
737,692	3282,38
738,045	3124,69
738,398	4152,77
738,752	4349,37
739,105	2948,56
739,459	3618,25
739,814	4472,25
740,168	4332,99
740,523	3026,39
740,878	3372,49
741,233	4152,77
741,589	4095,43
741,945	3055,06
742,301	3085,78
742,657	4261,31
743,014	3710,41
743,371	2952,66
743,728	3526,09
744,086	3771,85
744,444	3722,7
744,802	2721,24
745,16	2880,98
745,519	3923,4
745,878	3534,28
746,237	2729,43
746,597	2899,41
746,956	4091,33
747,316	3536,33
747,677	2565,59
748,037	2737,62
748,398	3454,41
748,759	3812,81
749,121	2684,38
749,482	2823,64
749,844	3296,72
750,207	3102,16
750,569	2268,64
750,932	2629,08
751,295	4091,33
751,659	3700,17
752,022	2342,36
752,386	2930,13
752,751	3415,5
753,115	2866,64
753,48	2346,46
753,845	2231,77
754,21	3513,8
754,576	3159,5
754,942	2174,43
755,308	2579,93
755,675	3030,48
756,041	3722,7
756,409	1996,26
756,776	2371,04
757,144	3530,19
757,511	3374,54
757,88	2047,46
758,248	1998,31
758,617	2465,24
758,986	3034,58
759,355	2162,14
759,725	2313,69
760,095	2608,6
760,465	3366,35
760,836	1928,67
761,206	2018,79
761,577	3313,1
761,949	2696,66
762,32	2096,61
762,692	1775,08
763,065	2606,55
763,437	2555,35
763,81	1836,52
764,183	2043,36
764,556	3276,24
764,93	2624,98
765,304	2129,38
765,678	2008,55
766,053	2602,46
766,428	2735,57
766,803	1545,7
767,178	1883,62
767,554	2149,86
767,93	2461,15
768,306	1629,67
768,683	1695,21
769,06	2782,68
769,437	2569,69
769,814	1375,72
770,192	1469,93
770,57	2303,45
770,948	3149,26
771,327	1588,71
771,706	1508,84
772,085	2504,15
772,464	3001,81
772,844	1609,19
773,224	1408,49
773,605	1883,62
773,985	2190,81
774,366	1545,7
774,748	1965,54
775,129	2627,03
775,511	2479,58
775,893	1418,73
776,276	1504,75
776,658	2743,77
777,041	2440,67
777,425	1168,88
777,808	1396,2
778,192	2080,22
778,576	2682,33
778,961	1144,3
779,346	1306,09
779,731	2403,8
780,116	1684,97
780,502	1281,52
780,888	1302
781,274	2168,29
781,661	1805,8
782,048	1125,87
782,435	1076,72
782,823	1840,61
783,21	2137,57
783,598	1166,83
783,987	1146,35
784,376	2446,81
784,765	1809,89
785,154	1209,84
785,544	1052,14
785,933	2203,1
786,324	1838,56
786,714	1312,24
787,105	828,92
787,496	1945,06
787,888	1732,07
788,279	824,82
788,671	974,32
789,064	1842,66
789,456	1986,02
789,849	878,07
790,242	914,93
790,636	1664,49
791,03	1934,82
791,424	798,2
791,818	2268,64
792,213	2026,98
792,608	1838,56
793,004	1078,77
793,399	634,36
793,795	1723,88
794,192	1617,38
794,588	808,44
794,985	583,16
795,382	1828,32
795,78	1707,49
796,178	912,88
796,576	792,05
796,974	2239,97
797,373	1680,87
797,772	691,7
798,172	716,28
798,571	1572,33
798,971	1902,05
799,372	712,18
799,772	847,35
800,173	1975,78
800,574	1639,91
800,976	658,93
801,378	617,97
801,78	1244,65
802,182	1134,06
802,585	667,13
802,988	554,49
803,392	1314,28
803,795	1295,85
804,199	531,96
804,604	749,04
805,008	1805,8
805,413	1924,58
805,819	673,27
806,224	482,81
806,63	1457,64
807,036	1625,58
807,443	540,15
807,85	708,09
808,257	1474,03
808,664	1484,27
809,072	871,92
809,48	734,71
809,889	1754,6
810,297	1633,77
810,706	871,92
811,116	529,91
811,526	1297,9
811,936	1197,55
812,346	466,42
812,757	460,28
813,167	1252,84
813,579	1125,87
813,99	663,03
814,402	392,7
814,814	1895,91
815,227	1195,5
815,64	204,28
816,053	423,42
816,467	1433,07
816,88	1304,04
817,294	701,94
817,709	589,3
818,124	1166,83
818,539	1670,63
818,954	517,62
819,37	667,13
819,786	941,55
820,202	1412,59
820,619	97,79
821,036	308,73
821,453	1449,45
821,871	1287,66
822,289	175,61
822,707	151,04
823,126	1379,82
823,545	814,58
823,964	253,44
824,384	251,39
824,804	818,68
825,224	1332,72
825,645	566,78
826,065	128,51
826,487	1463,79
826,908	1398,25
827,33	439,8
827,752	650,74
828,175	1201,65
828,598	1373,68
829,021	585,21
829,444	1007,09
829,868	1240,56
830,292	871,92
830,717	73,21
831,142	97,79
831,567	792,05
831,992	1035,76
832,418	753,14
832,844	85,5
833,27	1107,44
833,697	998,9
834,124	-25,09
834,552	42,5
834,979	1502,7
835,408	1101,3
835,836	52,74
836,265	261,63
836,694	798,2
837,123	1248,75
837,553	60,93
837,983	-115,2
838,413	1232,37
838,844	1236,46
839,275	-10,75
839,706	251,39
840,138	1684,97
840,57	794,1
841,003	65,02
841,435	286,2
841,868	790
842,302	953,84
842,735	253,44
843,169	-59,9
843,604	1220,08
844,039	1154,54
844,474	-45,57
844,909	-10,75
845,345	1265,13
845,781	1150,45
846,217	15,87
846,654	-207,36
847,091	1089,01
847,528	779,76
847,966	-53,76
848,404	-43,52
848,842	1519,08
849,281	175,61
849,72	69,12
850,16	-78,33
850,599	589,3
851,039	550,39
851,48	314,88
851,921	-10,75
852,362	1048,05
852,803	1336,81
853,245	-389,63
853,687	11,78
854,129	1129,97
854,572	675,32
855,015	-285,18
855,459	-102,91
855,903	488,95
856,347	1011,18
856,791	93,69
857,236	-129,53
857,681	1351,15
858,127	1658,34
858,572	204,28
859,019	-70,14
859,465	1070,58
859,912	781,81
860,359	-356,86
860,807	-152,06
861,255	540,15
861,703	1091,06
862,151	30,21
862,6	382,46
863,05	962,03
863,499	540,15
863,949	-6,66
864,4	-250,36
864,85	1289,71
865,301	964,08
865,752	-117,25
866,204	-137,73
866,656	482,81
867,109	1242,61
867,561	-164,35
868,014	30,21
868,468	974,32
868,921	945,65
869,376	-74,24
869,83	-127,49
870,285	814,58
870,74	429,56
871,195	-35,33
871,651	-115,2
872,107	1240,56
872,564	613,88
873,021	-365,05
873,478	-432,63
873,936	959,99
874,394	839,16
874,852	-180,73
875,31	38,4
875,769	806,39
876,229	1326,57
876,688	-53,76
877,148	-193,02
877,609	587,26
878,069	503,29
878,531	54,78
878,992	-356,86
879,454	781,81
879,916	757,24
880,378	-137,73
880,841	-180,73
881,304	241,15
881,768	357,88
882,232	-311,8
882,696	-98,81
883,161	335,35
883,626	667,13
884,091	-195,07
884,557	-279,04
885,023	374,27
885,489	992,75
885,956	-426,49
886,423	-285,18
886,89	177,66
887,358	693,75
887,826	-283,13
888,295	-160,25
888,763	386,55
889,233	1201,65
889,702	-172,54
890,172	-276,99
890,642	503,29
891,113	421,37
891,584	38,4
892,055	-221,69
892,527	921,07
892,999	978,42
893,472	-207,36
893,944	-135,68
894,417	699,89
894,891	294,4
895,365	-78,33
895,839	-119,29
896,314	689,65
896,789	-53,76
897,264	-225,79
897,74	-469,5
898,216	871,92
898,692	873,97
899,169	-320
899,646	-289,28
900,123	658,93
900,601	1142,25
901,079	-381,43
901,558	-166,4
902,037	941,55
902,516	531,96
902,996	-504,31
903,476	-403,96
903,956	351,74
904,437	929,27
904,918	-385,53
905,399	-438,78
905,881	826,87
906,363	691,7
906,846	-479,74
907,329	-172,54
907,812	192
908,296	720,37
908,78	-549,37
909,264	-467,45
909,749	275,96
910,234	906,74
910,719	-453,11
911,205	-143,87
911,691	65,02
912,178	652,79
912,665	138,75
913,152	-305,66
913,64	355,83
914,128	724,47
914,616	-348,67
915,105	-315,9
915,594	585,21
916,084	1060,34
916,574	-250,36
917,064	-463,35
917,555	155,13
918,046	785,91
918,537	93,69
919,029	-698,87
919,521	241,15
920,013	1068,53
920,506	-225,79
920,999	-489,98
921,493	810,48
921,987	312,83
922,481	-369,15
922,976	-377,34
923,471	347,64
923,967	562,68
924,462	-229,88
924,959	-346,62
925,455	617,97
925,952	499,19
926,449	-487,93
926,947	-336,38
927,445	470,52
927,944	499,19
928,442	-588,28
928,942	-492,02
929,441	775,67
929,941	153,09
930,442	-483,83
930,942	-387,58
931,443	691,7
931,945	85,5
932,447	-516,6
932,949	-315,9
933,451	380,41
933,954	503,29
934,458	-307,71
934,961	-500,22
935,465	175,61
935,97	192
936,475	-244,22
936,98	-567,8
937,486	-41,47
937,992	222,72
938,498	-432,63
939,005	-313,85
939,512	278,01
940,019	609,78
940,527	-254,46
941,035	-152,06
941,544	755,19
942,053	380,41
942,562	-45,57
943,072	-37,38
943,582	781,81
944,093	306,68
944,604	-668,15
945,115	-393,72
945,627	767,48
946,139	957,94
946,651	-305,66
947,164	-272,89
947,677	617,97
948,191	587,26
948,705	-526,84
949,219	-569,85
949,734	335,35
950,249	667,13
950,765	-463,35
951,281	-479,74
951,797	1574,38
952,314	871,92
952,831	-508,41
953,348	-575,99
953,866	744,95
954,384	368,12
954,903	-518,65
955,422	-586,23
955,941	318,97
956,461	409,08
956,981	-477,69
957,502	-315,9
958,023	652,79
958,544	560,63
959,066	-250,36
959,588	-561,66
960,11	126,46
960,633	847,35
961,156	-383,48
961,68	-377,34
962,204	904,69
962,729	-12,8
963,253	-537,08
963,779	179,71
964,304	587,26
964,83	986,61
965,357	-655,86
965,883	-352,76
966,411	392,7
966,938	620,02
967,466	-385,53
967,994	-569,85
968,523	194,05
969,052	998,9
969,582	-551,42
970,112	-487,93
970,642	146,94
971,173	880,11
971,704	-561,66
972,235	-289,28
972,767	579,06
973,3	486,9
973,832	-258,56
974,365	-588,28
974,899	519,67
975,433	579,06
975,967	-688,63
976,502	-242,17
977,037	429,56
977,572	896,5
978,108	-520,7
978,644	-651,77
979,181	1195,5
979,718	724,47
980,255	-838,13
980,793	-236,03
981,331	-111,1
981,87	779,76
982,409	-467,45
982,948	-246,27
983,488	265,72
984,028	914,93
984,569	-250,36
985,11	-420,35
985,651	837,11
986,193	681,46
986,735	-633,33
987,278	-545,27
987,821	11,78
988,364	261,63
988,908	-350,71
989,452	-610,81
989,997	-281,08
990,542	456,19
991,088	-563,7
991,633	-86,53
992,18	241,15
992,726	11,78
993,273	-418,3
993,821	-381,43
994,369	382,46
994,917	816,63
995,465	-676,34
996,014	-672,25
996,564	644,6
997,114	257,53
997,664	-262,65
998,215	-608,76
998,766	519,67
999,317	-70,14
999,869	-365,05
1000,421	-649,72
1000,974	660,98
1001,527	675,32
1002,081	-598,52
1002,635	-264,7
1003,189	368,12
1003,744	753,14
1004,299	-772,6
1004,854	-512,5
1005,41	849,4
1005,967	298,49
1006,523	-365,05
1007,081	-412,15
1007,638	437,75
1008,196	454,14
1008,755	-633,33
1009,313	-373,24
1009,873	679,41
1010,432	-12,8
1010,992	-385,53
1011,553	-352,76
1012,114	388,6
1012,675	-4,61
1013,237	-346,62
1013,799	-260,6
1014,361	589,3
1014,924	-78,33
1015,487	-616,95
1016,051	-416,25
1016,615	699,89
1017,18	472,57
1017,745	-573,94
1018,31	-117,25
1018,876	814,58
1019,442	445,95
1020,009	-381,43
1020,576	-739,83
1021,143	286,2
1021,711	763,38
1022,28	-461,3
1022,848	-471,54
1023,417	800,24
1023,987	308,73
1024,557	-614,9
1025,127	-522,74
1025,698	-141,82
1026,269	110,08
1026,841	-758,26
1027,413	-414,2
1027,985	204,28
1028,558	417,27
1029,131	-651,77
1029,705	-369,15
1030,279	478,71
1030,854	388,6
1031,429	-633,33
1032,004	-209,4
1032,58	652,79
1033,156	-2,56
1033,733	-619
1034,31	-590,33
1034,887	671,22
1035,465	695,8
1036,043	-848,37
1036,622	-500,22
1037,201	192
1037,781	761,33
1038,361	-573,94
1038,941	-762,36
1039,522	472,57
1040,103	804,34
1040,685	-651,77
1041,267	-215,55
1041,85	1084,91
1042,433	562,68
1043,016	-532,98
1043,6	-446,97
1044,184	-328,19
1044,769	601,59
1045,354	-477,69
1045,939	-631,29
1046,525	200,19
1047,111	447,99
1047,698	-367,1
1048,285	-766,45
1048,873	515,58
1049,461	-43,52
1050,049	-545,27
1050,638	-565,75
1051,228	34,3
1051,817	728,56
1052,407	-483,83
1052,998	-223,74
1053,589	597,49
1054,18	630,26
1054,772	-844,28
1055,365	-659,96
1055,957	425,47
1056,55	308,73
1057,144	-444,92
1057,738	-557,56
1058,333	175,61
1058,927	112,13
1059,523	-496,12
1060,118	-711,16
1060,715	-53,76
1061,311	581,11
1061,908	-616,95
1062,506	-299,52
1063,103	521,72
1063,702	-45,57
1064,3	-811,51
1064,9	-694,77
1065,499	833,01
1066,099	118,27
1066,7	-455,16
1067,301	-805,36
1067,902	837,11
1068,504	730,61
1069,106	-246,27
1069,709	-395,77
1070,312	818,68
1070,915	493,05
1071,519	-602,61
1072,123	-354,81
1072,728	609,78
1073,333	323,07
1073,939	-197,12
1074,545	-479,74
1075,152	540,15
1075,759	151,04
1076,366	-676,34
1076,974	-272,89
1077,582	208,38
1078,191	699,89
1078,8	-467,45
1079,41	-885,23
1080,02	294,4
1080,63	380,41
1081,241	-49,66
1081,852	-770,55
1082,464	355,83
1083,076	355,83
1083,689	-522,74
1084,302	-524,79
1084,915	769,52
1085,529	570,87
1086,144	-602,61
1086,759	-500,22
1087,374	87,55
1087,99	204,28
1088,606	-635,38
1089,222	-510,46
1089,839	550,39
1090,457	232,96
1091,075	-524,79
1091,693	-821,75
1092,312	513,53
1092,931	769,52
1093,551	-602,61
1094,171	-195,07
1094,792	331,26
1095,413	112,13
1096,034	-446,97
1096,656	-483,83
1097,278	577,02
1097,901	310,78
1098,524	-606,71
1099,148	-365,05
1099,772	994,8
1100,397	390,65
1101,022	-709,11
1101,647	-535,03
1102,273	384,51
1102,899	732,66
1103,526	-897,52
1104,153	-348,67
1104,781	650,74
1105,409	826,87
1106,038	-657,91
1106,667	-807,41
1107,296	128,51
1107,926	192
1108,556	-109,05
1109,187	-463,35
1109,818	396,79
1110,45	624,12
1111,082	-500,22
1111,715	-684,53
1112,348	359,93
1112,981	200,19
1113,615	-262,65
1114,25	-455,16
1114,885	200,19
1115,52	87,55
1116,156	-756,21
1116,792	-537,08
1117,428	488,95
1118,066	189,95
1118,703	-291,32
1119,341	-539,13
1119,98	671,22
1120,618	730,61
1121,258	-688,63
1121,898	-737,78
1122,538	361,98
1123,179	-102,91
1123,82	-514,55
1124,461	-422,39
1125,103	675,32
1125,746	280,06
1126,389	-381,43
1127,032	-713,21
1127,676	544,25
1128,32	841,2
1128,965	-451,07
1129,61	-428,54
1130,256	138,75
1130,902	677,37
1131,549	-614,9
1132,196	-627,19
1132,844	724,47
1133,491	677,37
1134,14	-518,65
1134,789	-549,37
1135,438	1031,66
1136,088	114,17
1136,738	-713,21
1137,389	-684,53
1138,04	495,1
1138,692	925,17
1139,344	-682,49
1139,996	-567,8
1140,649	425,47
1141,303	570,87
1141,957	-365,05
1142,611	-553,46
1143,266	421,37
1143,921	394,75
1144,577	-528,89
1145,233	-537,08
1145,89	93,69
1146,547	644,6
1147,205	-752,12
1147,863	-451,07
1148,521	392,7
1149,18	638,45
1149,84	-725,49
1150,5	-625,14
1151,16	308,73
1151,821	695,8
1152,482	-592,37
1153,144	-68,09
1153,806	284,16
1154,469	556,54
1155,132	-686,58
1155,796	-463,35
1156,46	593,4
1157,124	945,65
1157,789	-623,09
1158,455	-608,76
1159,121	390,65
1159,787	73,21
1160,454	-451,07
1161,121	-455,16
1161,789	269,82
1162,457	536,06
1163,126	-457,21
1163,795	-547,32
1164,465	482,81
1165,135	232,96
1165,806	-434,68
1166,477	-420,35
1167,148	-373,24
1167,82	429,56
1168,493	-803,32
1169,166	-350,71
1169,839	30,21
1170,513	460,28
1171,187	-739,83
1171,862	-563,7
1172,537	302,59
1173,213	390,65
1173,889	-578,04
1174,566	-606,71
1175,243	701,94
1175,921	364,03
1176,599	-442,87
1177,278	-332,28
1177,957	11,78
1178,636	742,9
1179,316	-385,53
1179,997	-797,17
1180,678	501,24
1181,359	785,91
1182,041	-657,91
1182,723	-750,07
1183,406	749,04
1184,089	151,04
1184,773	-662,01
1185,457	-707,06
1186,142	173,57
1186,827	1283,56
1187,513	-674,29
1188,199	-229,88
1188,886	112,13
1189,573	308,73
1190,26	-633,33
1190,948	-635,38
1191,637	79,36
1192,326	263,68
1193,015	-619
1193,705	-719,35
1194,396	77,31
1195,087	200,19
1195,778	-379,39
1196,47	-559,61
1197,162	298,49
1197,855	470,52
1198,548	-614,9
1199,242	-805,36
1199,936	425,47
1200,631	667,13
1201,326	-799,22
1202,022	-659,96
1202,718	695,8
1203,415	472,57
1204,112	-782,84
1204,81	-436,73
1205,508	216,57
1206,206	906,74
1206,905	-619
1207,605	-786,93
1208,305	224,76
1209,005	351,74
1209,706	-696,82
1210,408	-688,63
1211,11	300,54
1211,812	478,71
1212,515	-496,12
1213,218	-520,7
1213,922	378,36
1214,627	257,53
1215,331	-461,3
1216,037	-469,5
1216,743	-27,14
1217,449	447,99
1218,156	-299,52
1218,863	-510,46
1219,571	208,38
1220,279	734,71
1220,988	-803,32
1221,697	-479,74
1222,406	658,93
1223,117	99,84
1223,827	-512,5
1224,538	-582,14
1225,25	388,6
1225,962	411,13
1226,675	-819,7
1227,388	-416,25
1228,101	261,63
1228,815	19,97
1229,53	-467,45
1230,245	-422,39
1230,961	404,99
1231,677	226,81
1232,393	-504,31
1233,11	-532,98
1233,828	1068,53
1234,546	413,18
1235,264	-532,98
1235,983	-250,36
1236,702	1089,01
1237,422	308,73
1238,143	-240,12
1238,864	-664,05
1239,585	632,31
1240,307	-258,56
1241,029	-762,36
1241,752	-340,47
1242,476	601,59
1243,2	841,2
1243,924	-520,7
1244,649	-479,74
1245,374	650,74
1246,1	855,54
1246,826	-766,45
1247,553	-492,02
1248,28	433,66
1249,008	581,11
1249,737	-750,07
1250,465	-330,23
1251,195	464,38
1251,925	765,43
1252,655	-551,42
1253,386	-297,47
1254,117	300,54
1254,849	48,64
1255,581	-561,66
1256,314	-377,34
1257,047	663,03
1257,781	462,33
1258,515	-586,23
1259,25	-27,14
1259,985	300,54
1260,721	386,55
1261,457	-510,46
1262,194	-731,64
1262,931	198,14
1263,669	724,47
1264,407	-403,96
1265,146	-676,34
1265,885	331,26
1266,625	237,05
1267,365	-555,51
1268,106	-563,7
1268,847	454,14
1269,589	192
1270,331	-365,05
1271,074	-401,91
1271,817	470,52
1272,561	400,89
1273,305	-346,62
1274,05	-467,45
1274,795	251,39
1275,541	316,92
1276,287	-731,64
1277,034	-684,53
1277,781	110,08
1278,529	564,73
1279,277	-737,78
1280,026	-770,55
1280,775	790
1281,525	-365,05
1282,275	-870,9
1283,026	-225,79
1283,777	343,55
1284,529	355,83
1285,281	-428,54
1286,034	-823,8
1286,788	669,17
1287,541	327,16
1288,296	-791,03
1289,051	-377,34
1289,806	454,14
1290,562	519,67
1291,318	-614,9
1292,075	-520,7
1292,832	810,48
1293,59	873,97
1294,349	-565,75
1295,108	-635,38
1295,867	1002,99
1296,627	577,02
1297,387	-737,78
1298,148	-420,35
1298,91	296,44
1299,672	69,12
1300,434	-651,77
1301,197	-745,97
1301,961	1285,61
1302,725	429,56
1303,489	-403,96
1304,254	-467,45
1305,02	462,33
1305,786	726,52
1306,552	-809,46
1307,319	-799,22
1308,087	839,16
1308,855	898,55
1309,624	-651,77
1310,393	-504,31
1311,162	-180,73
1311,933	529,91
1312,703	-475,64
1313,474	-406,01
1314,246	267,77
1315,018	611,83
1315,791	-242,17
1316,564	-762,36
1317,338	622,07
1318,112	278,01
1318,887	-762,36
1319,662	-436,73
1320,438	382,46
1321,214	151,04
1321,991	-426,49
1322,769	-580,09
1323,546	331,26
1324,325	56,83
1325,104	-641,53
1325,883	-418,3
1326,663	-160,25
1327,444	388,6
1328,224	-547,32
1329,006	-434,68
1329,788	339,45
1330,571	349,69
1331,354	-336,38
1332,137	-678,39
1332,921	673,27
1333,706	-18,94
1334,491	-305,66
1335,277	-379,39
1336,063	93,69
1336,849	171,52
1337,637	-633,33
1338,424	-584,18
1339,213	962,03
1340,001	906,74
1340,791	-762,36
1341,581	-311,8
1342,371	427,51
1343,162	349,69
1343,953	-543,22
1344,745	-348,67
1345,537	486,9
1346,33	484,86
1347,124	-559,61
1347,918	-242,17
1348,712	900,59
1349,507	529,91
1350,303	-580,09
1351,099	-442,87
1351,896	146,94
1352,693	-184,83
1353,49	-512,5
1354,289	-553,46
1355,087	497,14
1355,887	726,52
1356,686	-397,82
1357,487	-578,04
1358,288	48,64
1359,089	243,2
1359,891	-201,21
1360,693	-500,22
1361,496	-131,58
1362,3	183,81
1363,104	-573,94
1363,908	-582,14
1364,713	794,1
1365,519	835,06
1366,325	-559,61
1367,131	-774,64
1367,939	226,81
1368,746	867,83
1369,555	-983,54
1370,363	-451,07
1371,173	904,69
1371,982	1119,73
1372,793	-612,85
1373,604	-889,33
1374,415	607,73
1375,227	691,7
1376,039	-684,53
1376,852	-643,57
1377,666	1027,57
1378,48	484,86
1379,295	-682,49
1380,11	-823,8
1380,925	-86,53
1381,742	955,89
1382,558	-537,08
1383,376	-586,23
1384,193	357,88
1385,012	144,89
1385,831	-578,04
1386,65	-526,84
1387,47	126,46
1388,29	138,75
1389,111	-616,95
1389,933	-778,74
1390,755	675,32
1391,578	288,25
1392,401	-768,5
1393,225	-569,85
1394,049	792,05
1394,873	210,43
1395,699	-713,21
1396,525	-475,64
1397,351	663,03
1398,178	-49,66
1399,005	-608,76
1399,833	-952,82
1400,662	552,44
1401,491	914,93
1402,321	-520,7
1403,151	-432,63
1403,981	341,5
1404,813	644,6
1405,644	-412,15
1406,477	-735,73
1407,309	146,94
1408,143	1146,35
1408,977	-639,48
1409,811	-604,66
1410,646	857,59
1411,482	593,4
1412,318	-485,88
1413,155	-559,61
1413,992	742,9
1414,829	-0,51
1415,668	-584,18
1416,506	-328,19
1417,346	824,82
1418,186	372,22
1419,026	-709,11
1419,867	-852,47
1420,709	667,13
1421,551	638,45
1422,393	-852,47
1423,236	-332,28
1424,08	331,26
1424,924	351,74
1425,769	-643,57
1426,614	-619
1427,46	433,66
1428,307	185,85
1429,154	-788,98
1430,001	-696,82
1430,849	527,86
1431,698	224,76
1432,547	-778,74
1433,397	-848,37
1434,247	529,91
1435,098	736,76
1435,949	-578,04
1436,801	-633,33
1437,653	118,27
1438,506	536,06
1439,36	-864,75
1440,214	-674,29
1441,069	529,91
1441,924	361,98
1442,78	-561,66
1443,636	-705,01
1444,493	392,7
1445,35	419,32
1446,208	-442,87
1447,067	-657,91
1447,926	513,53
1448,785	822,77
1449,645	-635,38
1450,506	-659,96
1451,367	437,75
1452,229	30,21
1453,091	-741,88
1453,954	-320
1454,818	245,24
1455,682	384,51
1456,546	-610,81
1457,412	-737,78
1458,277	775,67
1459,143	298,49
1460,01	-383,48
1460,878	-707,06
1461,745	372,22
1462,614	112,13
1463,483	-772,6
1464,352	-406,01
1465,223	781,81
1466,093	601,59
1466,964	-731,64
1467,836	-698,87
1468,709	630,26
1469,581	316,92
1470,455	-578,04
1471,329	-684,53
1472,203	5,63
1473,079	179,71
1473,954	-217,6
1474,831	-690,68
1475,707	171,52
1476,585	128,51
1477,463	-709,11
1478,341	-551,42
1479,22	32,26
1480,1	349,69
1480,98	-864,75
1481,861	-791,03
1482,742	568,82
1483,624	630,26
1484,506	-463,35
1485,389	-442,87
1486,273	249,34
1487,157	212,48
1488,041	-698,87
1488,926	-799,22
1489,812	392,7
1490,699	382,46
1491,585	-659,96
1492,473	-477,69
1493,361	-315,9
1494,249	210,43
1495,139	-442,87
1496,028	-537,08
1496,919	-37,38
1497,809	398,84
1498,701	-612,85
1499,593	-602,61
1500,485	216,57
1501,378	806,39
1502,272	-320
1503,166	-549,37
1504,061	769,52
1504,956	415,23
1505,852	-528,89
1506,749	-797,17
1507,646	476,66
1508,543	321,02
1509,442	-780,79
1510,34	-78,33
1511,24	1070,58
1512,14	296,44
1513,04	-614,9
1513,941	-754,16
1514,843	1175,02
1515,745	44,54
1516,648	-549,37
1517,551	-864,75
1518,455	-53,76
1519,359	-113,15
1520,264	-731,64
1521,17	-766,45
1522,076	208,38
1522,983	474,62
1523,89	-739,83
1524,798	-348,67
1525,706	294,4
1526,615	1322,48
1527,525	-694,77
1528,435	-549,37
1529,346	527,86
1530,257	-61,95
1531,169	-279,04
1532,081	-674,29
1532,994	1035,76
1533,908	237,05
1534,822	-680,44
1535,737	-504,31
1536,652	364,03
1537,568	255,48
1538,484	-698,87
1539,401	-907,76
1540,319	775,67
1541,237	-90,62
1542,156	-649,72
1543,075	-651,77
1543,995	949,75
1544,916	1134,06
1545,837	-741,88
1546,758	-655,86
1547,68	601,59
1548,603	579,06
1549,527	-463,35
1550,451	-786,93
1551,375	441,85
1552,3	771,57
1553,226	-823,8
1554,152	-741,88
1555,079	781,81
1556,006	269,82
1556,934	-453,11
1557,863	-494,07
1558,792	962,03
1559,722	99,84
1560,652	-475,64
1561,583	-807,41
1562,514	-14,85
1563,446	81,41
1564,379	-975,35
1565,312	-469,5
1566,246	658,93
1567,18	343,55
1568,115	-467,45
1569,051	-727,54
1569,987	847,35
1570,924	890,35
1571,861	-797,17
1572,799	-545,27
1573,737	640,5
1574,676	398,84
1575,616	-487,93
1576,556	-631,29
1577,497	-2,56
1578,438	171,52
1579,38	-684,53
1580,323	-496,12
1581,266	458,23
1582,21	667,13
1583,154	-729,59
1584,099	-750,07
1585,044	538,1
1585,99	703,99
1586,937	-406,01
1587,884	-518,65
1588,832	239,1
1589,78	1017,33
1590,729	-643,57
1591,679	-426,49
1592,629	347,64
1593,58	441,85
1594,531	-520,7
1595,483	-453,11
1596,435	208,38
1597,388	79,36
1598,342	-289,28
1599,296	-467,45
1600,251	529,91
1601,207	790
1602,163	-477,69
1603,119	-674,29
1604,077	749,04
1605,034	839,16
1605,993	-395,77
1606,952	-70,14
1607,911	249,34
1608,872	384,51
1609,832	-717,3
1610,794	-879,09
1611,756	622,07
1612,718	544,25
1613,681	-289,28
1614,645	-600,57
1615,609	783,86
1616,574	232,96
1617,54	-164,35
1618,506	-639,48
1619,472	753,14
1620,44	722,42
1621,408	-107,01
1622,376	-535,03
1623,345	378,36
1624,315	806,39
1625,285	-543,22
1626,256	-494,07
1627,227	587,26
1628,199	-100,86
1629,172	-475,64
1630,145	-348,67
1631,119	534,01
1632,094	1060,34
1633,069	-532,98
1634,044	-397,82
1635,02	200,19
1635,997	775,67
1636,975	-535,03
1637,953	-662,01
1638,931	945,65
1639,911	7,68
1640,89	-647,67
1641,871	-602,61
1642,852	527,86
1643,833	413,18
1644,816	-745,97
1645,798	-774,64
1646,782	992,75
1647,766	167,42
1648,75	-684,53
1649,736	-651,77
1650,721	87,55
1651,708	378,36
1652,695	-610,81
1653,682	-426,49
1654,671	310,78
1655,66	601,59
1656,649	-647,67
1657,639	-537,08
1658,63	-27,14
1659,621	237,05
1660,613	-860,66
1661,605	-776,69
1662,598	232,96
1663,592	251,39
1664,586	-862,71
1665,581	-791,03
1666,576	290,3
1667,572	423,42
1668,569	-500,22
1669,566	-649,72
1670,564	585,21
1671,563	783,86
1672,562	-811,51
1673,562	-203,26
1674,562	390,65
1675,563	531,96
1676,564	-315,9
1677,566	-575,99
1678,569	919,03
1679,572	-371,19
1680,576	-485,88
1681,581	-625,14
1682,586	192
1683,592	581,11
1684,598	-545,27
1685,605	-406,01
1686,613	658,93
1687,621	284,16
1688,63	-436,73
1689,639	-375,29
1690,649	282,11
1691,66	380,41
1692,671	-424,44
1693,683	-705,01
1694,696	-33,28
1695,709	269,82
1696,722	-655,86
1697,737	-469,5
1698,752	159,23
1699,767	417,27
1700,783	-496,12
1701,8	-459,26
1702,818	499,19
1703,836	-10,75
1704,854	-731,64
1705,873	-522,74
1706,893	151,04
1707,914	308,73
1708,935	-606,71
1709,956	-582,14
1710,979	284,16
1712,002	409,08
1713,025	-586,23
1714,049	-371,19
1715,074	491
1716,099	587,26
1717,125	-676,34
1718,152	-684,53
1719,179	11,78
1720,207	675,32
1721,235	-39,42
1722,265	-201,21
1723,294	253,44
1724,325	269,82
1725,355	-348,67
1726,387	-487,93
1727,419	357,88
1728,452	534,01
1729,485	-444,92
1730,519	-766,45
1731,554	69,12
1732,589	511,48
1733,625	-721,4
1734,662	-506,36
1735,699	-59,9
1736,736	667,13
1737,775	-674,29
1738,814	-569,85
1739,853	118,27
1740,894	204,28
1741,934	-430,59
1742,976	-674,29
1744,018	499,19
1745,061	421,37
1746,104	-664,05
1747,148	-633,33
1748,193	364,03
1749,238	333,31
1750,284	-442,87
1751,33	-700,92
1752,377	523,77
1753,425	1002,99
1754,473	-555,51
1755,522	-541,18
1756,572	802,29
1757,622	570,87
1758,673	-750,07
1759,724	-416,25
1760,776	747
1761,829	781,81
1762,882	-233,98
1763,936	-678,39
1764,991	30,21
1766,046	908,79
1767,102	-389,63
1768,158	-774,64
1769,215	445,95
1770,273	531,96
1771,331	-473,59
1772,39	-709,11
1773,45	460,28
1774,51	456,19
1775,571	-705,01
1776,632	-109,05
1777,694	224,76
1778,757	460,28
1779,82	-377,34
1780,884	-492,02
1781,949	97,79
1783,014	540,15
1784,08	-854,51
1785,147	-508,41
1786,214	257,53
1787,282	97,79
1788,35	-350,71
1789,419	-383,48
1790,489	683,51
1791,559	400,89
1792,63	-641,53
1793,702	-338,43
1794,774	208,38
1795,847	536,06
1796,92	-320
1797,994	-426,49
1799,069	497,14
1800,144	1191,41
1801,22	-557,56
1802,297	-334,33
1803,374	54,78
1804,452	396,79
1805,531	-690,68
1806,61	-342,52
1807,69	585,21
1808,77	-127,49
1809,851	-365,05
1810,933	-786,93
1812,015	683,51
1813,098	140,8
1814,182	-557,56
1815,266	-446,97
1816,351	388,6
1817,437	341,5
1818,523	-434,68
1819,61	-539,13
1820,697	413,18
1821,785	1170,93
1822,874	-465,4
1823,963	-616,95
1825,053	257,53
1826,144	456,19
1827,235	-496,12
1828,327	-631,29
1829,42	251,39
1830,513	-68,09
1831,607	-766,45
1832,701	-602,61
1833,796	216,57
1834,892	720,37
1835,989	-705,01
1837,086	-668,15
1838,183	423,42
1839,282	179,71
1840,381	-512,5
1841,48	-582,14
1842,581	419,32
1843,682	900,59
1844,783	-373,24
1845,885	-322,04
1846,988	699,89
1848,092	486,9
1849,196	-373,24
1850,301	-395,77
1851,406	52,74
1852,512	1093,1
1853,619	-475,64
1854,726	-668,15
1855,834	138,75
1856,943	769,52
1858,052	-621,05
1859,162	-436,73
1860,273	443,9
1861,384	763,38
1862,496	-504,31
1863,608	-696,82
1864,721	466,42
1865,835	169,47
1866,95	-608,76
1868,065	-580,09
1869,181	267,77
1870,297	593,4
1871,414	-428,54
1872,532	-774,64
1873,65	323,07
1874,769	163,33
1875,889	-684,53
1877,009	-115,2
1878,13	493,05
1879,252	787,96
1880,374	-467,45
1881,497	-557,56
1882,62	335,35
1883,745	134,65
1884,87	-805,36
1885,995	-717,3
1887,121	239,1
1888,248	48,64
1889,376	-791,03
1890,504	-629,24
1891,632	503,29
1892,762	169,47
1893,892	-614,9
1895,023	-440,83
1896,154	97,79
1897,286	331,26
1898,419	-780,79
1899,552	-537,08
1900,686	546,3
1901,821	550,39
1902,956	-627,19
1904,092	-516,6
1905,229	810,48
1906,366	603,64
1907,504	-561,66
1908,643	-555,51
1909,782	536,06
