Data from led_USB4H112691__1__11-26-55-549.txt Node

Date: Tue Dec 17 11:26:55 CET 2024
User: Etudiants TP
Spectrometer: USB4H11269
Trigger mode: 4
Integration Time (sec): 1,000000E0
Scans to average: 1
Electric dark correction enabled: true
Nonlinearity correction enabled: false
Boxcar width: 0
XAxis mode: Wavelengths
Number of Pixels in Spectrum: 3648
>>>>>Begin Spectral Data<<<<<
286,377	-1586,66
286,631	-1586,66
286,884	-1586,66
287,138	-1631,72
287,391	-1580,52
287,644	-896,5
287,896	-577,02
288,149	664,05
288,401	487,93
288,653	-595,45
288,905	-368,12
289,157	831,99
289,409	279,04
289,661	-439,8
289,912	-687,61
290,163	520,7
290,414	780,79
290,665	-611,83
290,916	-548,34
291,166	467,45
291,417	1165,81
291,667	-548,34
291,917	-165,37
292,167	565,75
292,417	453,11
292,666	-613,88
292,916	-603,64
293,165	508,41
293,414	731,64
293,663	-771,57
293,912	-660,98
294,16	659,96
294,408	688,63
294,657	-558,58
294,905	-357,88
295,153	537,08
295,4	707,06
295,648	-728,56
295,895	-652,79
296,143	160,25
296,39	754,16
296,637	-556,54
296,884	-609,78
297,13	664,05
297,377	852,47
297,623	-531,96
297,869	-335,35
298,115	696,82
298,361	680,44
298,606	-699,89
298,852	-581,11
299,097	514,55
299,342	999,92
299,587	-355,83
299,832	-511,48
300,077	559,61
300,322	680,44
300,566	-689,65
300,81	-423,42
301,054	623,09
301,298	805,36
301,542	-220,67
301,785	-253,44
302,029	985,58
302,272	631,29
302,515	-769,52
302,758	-445,95
303,001	901,62
303,244	758,26
303,486	-507,38
303,729	-884,21
303,971	1026,54
304,213	791,03
304,455	-742,9
304,696	-239,1
304,938	322,04
305,179	750,07
305,421	-464,38
305,662	-433,66
305,903	379,39
306,143	338,43
306,384	-384,51
306,625	-402,94
306,865	422,39
307,105	227,84
307,345	-364,03
307,585	-433,66
307,825	41,47
308,064	627,19
308,304	-523,77
308,543	-769,52
308,782	582,14
309,021	782,84
309,26	-292,35
309,499	-531,96
309,737	977,39
309,976	705,01
310,214	-572,92
310,452	-577,02
310,69	1188,33
310,928	270,84
311,165	-646,65
311,403	-556,54
311,64	895,47
311,878	635,38
312,115	-472,57
312,351	-450,04
312,588	430,59
312,825	946,67
313,061	-656,89
313,298	41,47
313,534	360,95
313,77	795,12
314,006	-556,54
314,241	-589,3
314,477	727,54
314,713	1184,24
314,948	-497,14
315,183	199,16
315,418	940,53
315,653	535,03
315,888	-617,97
316,122	-366,07
316,357	354,81
316,591	877,04
316,825	-419,32
317,059	-554,49
317,293	924,15
317,527	524,79
317,76	-581,11
317,994	-374,27
318,227	786,93
318,46	1077,74
318,693	-568,82
318,926	-382,46
319,159	133,63
319,391	547,32
319,624	-605,69
319,856	-441,85
320,088	729,59
320,321	627,19
320,552	-230,91
320,784	-519,67
321,016	778,74
321,247	-22,02
321,479	-249,34
321,71	-280,06
321,941	-110,08
322,172	1206,77
322,403	-620,02
322,633	-243,2
322,864	836,08
323,094	238,08
323,325	37,38
323,555	-601,59
323,785	223,74
324,014	164,35
324,244	-456,19
324,474	-185,85
324,703	862,71
324,933	883,19
325,162	-325,12
325,391	-740,85
325,62	29,18
325,848	860,66
326,077	-480,76
326,306	-302,59
326,534	782,84
326,762	981,49
326,99	-554,49
327,218	-185,85
327,446	856,56
327,674	90,62
327,901	-564,73
328,129	-583,16
328,356	844,28
328,583	281,08
328,81	-499,19
329,037	-368,12
329,264	348,67
329,491	844,28
329,717	-339,45
329,944	-570,87
330,17	451,07
330,396	170,49
330,622	-644,6
330,848	-294,4
331,074	492,02
331,299	1329,64
331,525	-564,73
331,75	-447,99
331,975	961,01
332,201	242,17
332,426	-783,86
332,65	-560,63
332,875	-105,98
333,1	551,42
333,324	-597,49
333,549	-595,45
333,773	287,23
333,997	567,8
334,221	-486,9
334,445	-433,66
334,668	600,57
334,892	1090,03
335,116	-343,55
335,339	-472,57
335,562	8,7
335,785	434,68
336,008	-314,88
336,231	-536,06
336,454	-69,12
336,676	1032,69
336,899	-478,71
337,121	-343,55
337,343	135,68
337,566	506,36
337,788	-511,48
338,009	-632,31
338,231	111,1
338,453	512,5
338,674	3152,34
338,896	-345,59
339,117	-40,45
339,338	1085,94
339,559	-677,37
339,78	-550,39
340,001	92,67
340,222	950,77
340,442	-452,09
340,663	-155,13
340,883	762,36
341,103	426,49
341,323	-491
341,543	-351,74
341,763	819,7
341,983	399,87
342,202	-697,85
342,422	-595,45
342,641	1135,09
342,861	451,07
343,08	-97,79
343,299	-638,45
343,518	684,53
343,736	688,63
343,955	-497,14
344,174	-521,72
344,392	831,99
344,61	64
344,829	-620,02
345,047	-544,25
345,265	700,92
345,483	868,85
345,7	-503,29
345,918	-105,98
346,136	109,05
346,353	803,32
346,57	-613,88
346,788	-701,94
347,005	324,09
347,222	125,44
347,438	0,51
347,655	-513,53
347,872	213,5
348,088	1151,47
348,305	-335,35
348,521	-538,1
348,737	160,25
348,953	987,63
349,169	-105,98
349,385	-437,75
349,601	471,54
349,817	-7,68
350,032	-46,59
350,248	-282,11
350,463	1292,78
350,678	-224,76
350,893	-552,44
351,108	-636,41
351,323	143,87
351,538	862,71
351,753	-609,78
351,967	-581,11
352,182	831,99
352,396	244,22
352,61	-669,17
352,824	-540,15
353,038	532,98
353,252	934,39
353,466	-398,84
353,68	-531,96
353,894	471,54
354,107	197,12
354,32	-296,44
354,534	-552,44
354,747	692,73
354,96	8,7
355,173	-351,74
355,386	-638,45
355,599	567,8
355,811	346,62
356,024	-626,17
356,236	-445,95
356,449	279,04
356,661	424,44
356,873	-660,98
357,085	-722,42
357,297	619
357,509	684,53
357,721	-488,95
357,933	-441,85
358,144	315,9
358,356	250,36
358,567	-253,44
358,778	-656,89
358,989	844,28
359,2	188,93
359,411	-400,89
359,622	-280,06
359,833	586,23
360,044	336,38
360,254	-482,81
360,465	-628,21
360,675	549,37
360,885	442,87
361,096	-617,97
361,306	-396,79
361,516	303,61
361,726	360,95
361,935	-800,24
362,145	-529,91
362,355	434,68
362,564	520,7
362,774	-597,49
362,983	-699,89
363,192	872,95
363,401	279,04
363,61	-603,64
363,819	-275,96
364,028	397,82
364,237	944,63
364,445	-478,71
364,654	-148,99
364,862	428,54
365,071	268,8
365,279	-343,55
365,487	-540,15
365,695	590,33
365,903	418,3
366,111	-513,53
366,319	-482,81
366,527	588,28
366,734	272,89
366,942	-359,93
367,149	-634,36
367,357	-538,1
367,564	981,49
367,771	-464,38
367,978	-605,69
368,185	170,49
368,392	301,56
368,599	-232,96
368,806	-474,62
369,013	-22,02
369,219	508,41
369,426	-724,47
369,632	-179,71
369,838	1116,65
370,044	647,67
370,251	-421,37
370,457	-355,83
370,663	879,09
370,868	346,62
371,074	-515,58
371,28	-556,54
371,485	-169,47
371,691	676,34
371,896	-585,21
372,102	-605,69
372,307	1141,23
372,512	874,99
372,717	-558,58
372,922	-204,28
373,127	217,6
373,332	492,02
373,537	-417,27
373,741	-536,06
373,946	565,75
374,151	260,6
374,355	-687,61
374,559	-421,37
374,764	291,32
374,968	-333,31
375,172	-478,71
375,376	-224,76
375,58	520,7
375,784	109,05
375,987	-699,89
376,191	-396,79
376,395	170,49
376,598	236,03
376,802	-599,54
377,005	-161,28
377,208	320
377,412	98,81
377,615	-740,85
377,818	-540,15
378,021	305,66
378,224	-58,88
378,426	-581,11
378,629	-781,81
378,832	756,21
379,034	688,63
379,237	-769,52
379,439	-759,28
379,642	684,53
379,844	567,8
380,046	-775,67
380,248	-617,97
380,45	-81,41
380,652	-138,75
380,854	-441,85
381,056	-548,34
381,258	467,45
381,459	549,37
381,661	-617,97
381,862	-290,3
382,064	-71,17
382,265	182,78
382,467	-617,97
382,668	-364,03
382,869	694,77
383,07	518,65
383,271	-323,07
383,472	-603,64
383,673	801,27
383,874	541,18
384,074	-345,59
384,275	-663,03
384,476	608,76
384,676	1106,42
384,876	-630,26
385,077	-515,58
385,277	778,74
385,477	944,63
385,677	-701,94
385,878	-417,27
386,078	344,57
386,278	317,95
386,477	-232,96
386,677	-138,75
386,877	541,18
387,077	713,21
387,276	-247,29
387,476	-439,8
387,675	459,26
387,875	913,91
388,074	-605,69
388,273	-431,61
388,472	844,28
388,671	-120,32
388,87	-665,08
389,069	29,18
389,268	-185,85
389,467	188,93
389,666	-701,94
389,865	-85,5
390,063	565,75
390,262	805,36
390,461	-536,06
390,659	-597,49
390,857	784,88
391,056	674,29
391,254	-581,11
391,452	-400,89
391,65	852,47
391,849	635,38
392,047	-337,4
392,245	-136,7
392,442	326,14
392,64	614,9
392,838	-192
393,036	-409,08
393,233	389,63
393,431	336,38
393,629	-810,48
393,826	-290,3
394,023	387,58
394,221	-56,83
394,418	-300,54
394,615	-179,71
394,812	-17,92
395,01	846,32
395,207	-482,81
395,404	-601,59
395,601	975,35
395,797	598,52
395,994	-675,32
396,191	-411,13
396,388	295,42
396,584	694,77
396,781	-261,63
396,977	72,19
397,174	631,29
397,37	-28,16
397,567	-280,06
397,763	-474,62
397,959	401,91
398,155	315,9
398,352	-390,65
398,548	-101,89
398,744	492,02
398,94	430,59
399,136	-579,06
399,331	-79,36
399,527	434,68
399,723	670,2
399,919	-286,2
400,114	-421,37
400,31	270,84
400,505	580,09
400,701	-286,2
400,896	-531,96
401,092	201,21
401,287	397,82
401,482	-597,49
401,678	-267,77
401,873	696,82
402,068	795,12
402,263	-298,49
402,458	-251,39
402,653	180,73
402,848	553,46
403,043	-204,28
403,237	-468,47
403,432	272,89
403,627	-40,45
403,822	-628,21
404,016	-398,84
404,211	283,13
404,405	809,46
404,6	-71,17
404,794	-99,84
404,989	715,25
405,183	330,23
405,377	-24,06
405,571	-13,82
405,766	756,21
405,96	453,11
406,154	-261,63
406,348	-97,79
406,542	731,64
406,736	688,63
406,93	-392,7
407,124	-175,61
407,318	428,54
407,511	485,88
407,705	10,75
407,899	-208,38
408,092	745,97
408,286	670,2
408,48	-380,41
408,673	-310,78
408,867	264,7
409,06	619
409,253	12,8
409,447	-114,17
409,64	946,67
409,833	819,7
410,026	51,71
410,22	43,52
410,413	1147,37
410,606	788,98
410,799	-222,72
410,992	-105,98
411,185	655,86
411,378	1384,94
411,571	-77,31
411,764	-105,98
411,956	952,82
412,149	958,96
412,342	141,82
412,534	115,2
412,727	1083,89
412,92	918
413,112	141,82
413,305	336,38
413,497	1282,54
413,69	1272,3
413,882	164,35
414,075	377,34
414,267	1065,46
414,459	840,18
414,652	39,42
414,844	322,04
415,036	1163,76
415,228	1507,82
415,42	520,7
415,612	352,76
415,804	1614,31
415,997	1305,07
416,188	512,5
416,38	485,88
416,572	926,19
416,764	1454,57
416,956	420,35
417,148	367,1
417,34	1243,63
417,531	854,51
417,723	426,49
417,915	510,46
418,107	1135,09
418,298	1581,54
418,49	551,42
418,681	905,71
418,873	1913,31
419,064	1630,7
419,256	811,51
419,447	766,45
419,639	1774,05
419,83	2030,05
420,021	1010,16
420,213	690,68
420,404	1622,5
420,595	1677,8
420,786	1034,74
420,978	1171,95
421,169	2288,09
421,36	1657,32
421,551	1126,89
421,742	1059,31
421,933	2451,93
422,124	2206,17
422,315	1352,17
422,506	1307,12
422,697	2316,76
422,888	2122,21
423,079	1651,17
423,27	1524,2
423,461	2091,49
423,652	2085,34
423,842	1368,56
424,033	1706,47
424,224	2671,06
424,415	3000,79
424,605	1769,96
424,796	1778,15
424,987	2703,83
425,177	2798,04
425,368	1688,04
425,558	1778,15
425,749	2683,35
425,939	2810,33
426,13	2417,12
426,32	2316,76
426,511	2873,81
426,701	2898,39
426,892	2339,29
427,082	2288,09
427,272	3019,22
427,463	3293,65
427,653	2691,54
427,843	2812,37
428,034	4139,46
428,224	3613,13
428,414	2634,2
428,604	2914,77
428,795	3916,23
428,985	3969,48
429,175	3396,04
429,365	3307,98
429,555	4014,53
429,745	4221,38
429,935	3473,87
430,126	3611,08
430,316	4594,11
430,506	4653,5
430,696	3758,53
430,886	4082,11
431,076	4856,25
431,266	4659,64
431,456	4352,45
431,645	4358,59
431,835	4895,16
432,025	5323,18
432,215	4358,59
432,405	4766,14
432,595	5552,56
432,785	5300,66
432,975	4940,21
433,164	4860,34
433,354	5732,78
433,544	6205,86
433,734	5194,16
433,923	5530,03
434,113	6373,79
434,303	6357,41
434,493	5968,29
434,682	6148,51
434,872	7039,38
435,062	6431,13
435,251	6238,62
435,441	6427,04
435,631	7754,12
435,82	7817,61
436,01	6549,92
436,2	6918,55
436,389	7702,92
436,579	8745,34
436,768	7641,48
436,958	7903,62
437,147	8462,72
437,337	9118,07
437,527	8192,39
437,716	8302,98
437,906	9748,84
438,095	9251,19
438,285	9036,15
438,474	9064,82
438,664	10269,03
438,853	10187,11
439,043	9552,24
439,232	9650,54
439,422	10838,36
439,611	11288,92
439,8	10211,68
439,99	10969,43
440,179	11694,41
440,369	12136,77
440,558	11147,61
440,748	11516,24
440,937	12323,14
441,126	12489,03
441,316	12411,2
441,505	12443,97
441,695	13289,78
441,884	14119,21
442,073	12781,88
442,263	12853,56
442,452	13959,47
442,642	14625,06
442,831	13451,57
443,02	14278,95
443,21	15722,77
443,399	16025,87
443,588	15032,6
443,778	14870,81
443,967	16664,83
444,156	16081,16
444,346	15462,68
444,535	15522,07
444,725	17416,44
444,914	16871,68
445,103	16269,58
445,293	16812,29
445,482	17746,16
445,671	17780,98
445,861	17303,8
446,05	17332,47
446,239	17922,29
446,429	17946,86
446,618	17563,89
446,807	17479,93
446,997	18837,73
447,186	18454,76
447,376	18057,45
447,565	17924,33
447,754	19364,06
447,944	19116,25
448,133	17971,44
448,322	17744,11
448,512	18905,31
448,701	19110,11
448,891	17668,34
449,08	18069,74
449,269	18481,38
449,459	18370,79
449,648	17787,12
449,838	18168,04
450,027	18145,52
450,217	18280,68
450,406	16941,31
450,595	17715,44
450,785	18440,42
450,974	18026,73
451,164	17572,08
451,353	17334,52
451,543	18010,35
451,732	18573,54
451,922	16781,57
452,111	16892,16
452,301	17066,24
452,49	16617,73
452,68	15892,75
452,869	16670,98
453,059	16998,65
453,249	17619,19
453,438	15747,34
453,628	15913,23
453,817	16974,08
454,007	17137,91
454,197	15761,68
454,386	15651,09
454,576	16910,59
454,765	16533,76
454,955	15589,65
455,145	15446,29
455,334	16032,01
455,524	15335,7
455,714	15536,4
455,904	14684,45
456,093	16398,6
456,283	15704,34
456,473	14604,58
456,663	14893,34
456,852	15276,31
457,042	15630,61
457,232	14555,43
457,422	15044,89
457,612	15003,93
457,802	15517,97
457,991	14008,62
458,181	13869,36
458,371	15534,35
458,561	15323,41
458,751	14307,62
458,941	14190,89
459,131	14780,7
459,321	14596,39
459,511	14137,64
459,701	13664,56
459,891	14426,4
460,081	14393,64
460,271	14000,43
460,461	13664,56
460,651	15442,2
460,841	15429,91
461,032	13570,35
461,222	14022,95
461,412	14582,05
461,602	15364,37
461,792	13609,26
461,983	13291,83
462,173	14618,91
462,363	15257,88
462,554	13895,98
462,744	13545,78
462,934	14780,7
463,125	14250,28
463,315	13435,19
463,505	13678,9
463,696	14442,79
463,886	14248,23
464,077	13451,57
464,267	13381,94
464,458	14997,79
464,648	13928,75
464,839	13586,74
465,03	13388,08
465,22	13971,75
465,411	14324,01
465,601	13508,91
465,792	13142,33
465,983	13898,03
466,174	14338,34
466,364	12992,83
466,555	13052,22
466,746	14426,4
466,937	14061,87
467,128	13232,44
467,319	13101,37
467,51	14278,95
467,701	15165,72
467,891	13476,15
468,082	13406,52
468,274	14197,03
468,465	13721,9
468,656	13164,86
468,847	13101,37
469,038	13842,73
469,229	14438,69
469,42	13515,06
469,612	13156,66
469,803	14440,74
469,994	14682,4
470,185	13644,08
470,377	13330,74
470,568	14573,86
470,76	14559,52
470,951	13682,99
471,142	13771,05
471,334	14872,86
471,526	14684,45
471,717	14266,66
471,909	13355,32
472,1	14772,51
472,292	14981,4
472,484	13861,16
472,675	13904,17
472,867	15089,95
473,059	15640,85
473,251	14430,5
473,443	14532,9
473,635	15388,95
473,826	15376,66
474,018	14493,99
474,21	14684,45
474,402	15694,1
474,595	16091,4
474,787	14756,13
474,979	15218,97
475,171	15563,03
475,363	15499,54
475,555	14915,87
475,748	15300,89
475,94	16353,54
476,132	16097,55
476,325	15505,68
476,517	16314,63
476,71	17717,49
476,902	16433,41
477,095	15646,99
477,287	16572,68
477,48	17373,43
477,673	17023,23
477,865	16208,14
478,058	16333,06
478,251	17694,96
478,444	17893,61
478,636	16834,82
478,829	16933,12
479,022	17905,9
479,215	18247,91
479,408	17260,79
479,601	17727,73
479,794	17912,05
479,988	18022,64
480,181	17623,28
480,374	17680,63
480,567	18981,09
480,76	19417,3
480,954	17789,17
481,147	17907,95
481,341	18917,6
481,534	18962,65
481,728	18587,88
481,921	18770,15
482,115	19755,22
482,308	20191,44
482,502	18866,4
482,696	18727,14
482,89	20646,08
483,084	20107,47
483,277	19067,1
483,471	19656,92
483,665	21123,26
483,859	21508,28
484,053	19661,01
484,247	19634,39
484,442	20648,13
484,636	20961,47
484,83	20089,04
485,024	20232,4
485,219	21242,04
485,413	21182,65
485,608	20709,57
485,802	20920,51
485,997	21831,86
486,191	21653,69
486,386	21022,91
486,58	21094,59
486,775	22014,13
486,97	22493,35
487,165	21270,72
487,36	21807,28
487,555	22671,53
487,75	22327,47
487,945	21741,75
488,14	21883,06
488,335	22415,53
488,53	23036,06
488,725	22022,32
488,92	22735,01
489,116	23652,5
489,311	23453,85
489,507	22511,78
489,702	23083,17
489,898	23974,03
490,093	23537,82
490,289	23457,95
490,485	23337,12
490,68	23679,13
490,876	25055,36
491,072	23120,03
491,268	23511,19
491,464	25247,87
491,66	24862,85
491,856	23543,96
492,052	24709,25
492,248	25219,2
492,445	25223,3
492,641	24309,9
492,837	24199,31
493,034	26013,81
493,23	25907,32
493,427	25090,18
493,623	24955,01
493,82	26079,35
494,017	26607,72
494,214	24930,44
494,41	25159,81
494,607	26208,37
494,804	26030,19
495,001	25536,63
495,198	25899,12
495,395	26720,36
495,593	26845,29
495,79	25380,99
495,987	25811,06
496,184	26194,03
496,382	27048,04
496,579	26165,36
496,777	26216,56
496,974	27988,05
497,172	27523,16
497,37	26853,48
497,568	26441,84
497,766	28389,45
497,963	27535,45
498,161	26876,01
498,359	26763,37
498,558	28385,36
498,756	28721,23
498,954	26914,92
499,152	27578,46
499,351	28354,64
499,549	28153,94
499,747	27582,56
499,946	27469,92
500,145	28457,04
500,343	28674,12
500,542	27924,57
500,741	27451,49
500,94	29481,02
501,139	29454,4
501,338	28065,88
501,537	29032,52
501,736	29687,87
501,935	29253,7
502,134	28092,5
502,334	29003,85
502,533	29945,91
502,733	29605,95
502,932	28735,56
503,132	29048,9
503,331	29569,08
503,531	30124,08
503,731	29184,07
503,931	29157,44
504,131	29771,83
504,331	30814,25
504,531	29362,24
504,731	29534,27
504,931	30519,34
505,132	30896,17
505,332	29503,55
505,532	29943,86
505,733	31166,5
505,933	31639,58
506,134	30267,44
506,335	29993,01
506,536	30687,28
506,736	31821,85
506,937	30224,43
507,138	30326,83
507,34	32442,38
507,541	31561,76
507,742	31094,82
507,943	30582,83
508,145	31715,36
508,346	31004,71
508,548	30971,94
508,749	31004,71
508,951	31617,05
509,153	31764,51
509,354	31453,22
509,556	31242,28
509,758	32966,66
509,96	32038,94
510,163	31694,88
510,365	32088,09
510,567	32673,81
510,769	32804,88
510,972	31797,27
511,174	32423,95
511,377	32442,38
511,58	33966,07
511,782	32235,54
511,985	31973,4
512,188	34191,35
512,391	33452,03
512,594	32604,17
512,797	32679,95
513,001	33771,52
513,204	34494,45
513,407	33040,39
513,611	32876,55
513,814	34150,39
514,018	34488,31
514,222	33126,41
514,425	33325,06
514,629	34111,48
514,833	34113,53
515,037	33306,63
515,241	33607,68
515,445	34199,54
515,65	34252,79
515,854	33720,32
516,059	34138,1
516,263	35164,14
516,468	35157,99
516,672	34060,28
516,877	34447,35
517,082	34529,27
517,287	35067,88
517,492	34703,34
517,697	34363,38
517,902	35047,4
518,107	35041,26
518,313	34142,2
518,518	34758,64
518,724	36308,95
518,929	35174,38
519,135	35274,73
519,341	34228,21
519,547	35825,63
519,753	35878,88
519,959	34994,15
520,165	34758,64
520,371	36415,44
520,577	36988,88
520,784	35018,73
520,99	35766,24
521,197	36501,46
521,404	36216,79
521,61	35231,72
521,817	35434,47
522,024	37128,14
522,231	35942,36
522,438	35778,53
522,645	35835,87
522,853	36472,79
523,06	36909
523,268	35901,4
523,475	35823,58
523,683	36976,59
523,891	37007,31
524,098	35706,85
524,306	36337,62
524,514	37289,93
524,722	37099,47
524,931	36712,4
525,139	36599,76
525,347	37062,6
525,556	37167,05
525,764	36544,47
525,973	36708,3
526,182	37652,42
526,391	37183,43
526,6	36747,22
526,809	36726,74
527,018	37199,82
527,227	38084,54
527,436	36702,16
527,646	36892,62
527,855	38197,18
528,065	37779,39
528,275	36837,33
528,484	36878,29
528,694	38008,76
528,904	37793,73
529,114	37138,38
529,325	37244,87
529,535	37298,12
529,745	37826,49
529,956	37238,73
530,166	37208,01
530,377	38524,85
530,588	38934,45
530,799	37197,77
531,01	37167,05
531,221	38291,38
531,432	38979,5
531,643	37877,69
531,855	37851,07
532,066	38535,09
532,278	38670,26
532,489	37287,88
532,701	37652,42
532,913	39081,9
533,125	38653,87
533,337	37355,46
533,549	38227,9
533,762	39024,56
533,974	38477,75
534,186	37468,1
534,399	37928,89
534,612	39327,66
534,825	38995,88
535,037	37904,32
535,25	38313,91
535,464	38631,35
535,677	39243,69
535,89	38168,51
536,104	38131,64
536,317	38903,73
536,531	39399,33
536,744	38322,1
536,958	38193,08
537,172	39169,96
537,386	39208,87
537,6	38520,76
537,815	38537,14
538,029	39350,18
538,244	39679,91
538,458	38303,67
538,673	38786,99
538,888	39718,82
539,103	39917,47
539,318	39184,3
539,533	38922,16
539,748	40146,84
539,963	38993,84
540,179	38696,88
540,394	38709,17
540,61	39094,19
540,826	39825,31
541,042	39004,08
541,258	39067,56
541,474	40662,93
541,69	39759,78
541,906	39096,24
542,123	39200,68
542,339	39921,57
542,556	40071,07
542,773	39444,39
542,99	39387,05
543,207	40177,56
543,424	40124,32
543,641	39352,23
543,858	39894,94
544,076	40517,53
544,293	39819,17
544,511	39397,29
544,729	39413,67
544,947	40345,5
545,165	40613,78
545,383	39567,27
545,601	39432,1
545,819	41033,61
546,038	40923,02
546,256	40107,93
546,475	39718,82
546,694	41475,98
546,913	40974,22
547,132	40249,24
547,351	39976,86
547,57	40611,73
547,79	40148,89
548,009	40347,54
548,229	40124,32
548,449	40339,35
548,668	41342,86
548,888	40302,49
549,109	40429,46
549,329	40943,5
549,549	41125,77
549,77	40460,18
549,99	40597,4
550,211	41789,31
550,432	42176,38
550,653	40382,36
550,874	40695,7
551,095	42493,82
551,316	41297,8
551,538	40382,36
551,759	40939,41
551,981	41824,13
552,203	41850,75
552,424	41058,19
552,646	41668,48
552,869	41817,99
553,091	41916,29
553,313	41013,13
553,536	41324,43
553,758	42622,84
553,981	41756,55
554,204	41185,16
554,427	41828,23
554,65	42131,33
554,873	41559,94
555,097	41054,09
555,32	41441,16
555,544	42796,91
555,768	42559,35
555,992	42014,59
556,216	41553,8
556,44	42282,87
556,664	42973,04
556,888	41736,07
557,113	41578,37
557,337	43353,96
557,562	43208,56
557,787	41658,24
558,012	41801,6
558,237	43253,61
558,462	42579,83
558,688	42407,8
558,913	42018,69
559,139	42801,01
559,365	43450,22
559,591	41590,66
559,817	42268,54
560,043	43503,46
560,269	43640,68
560,496	42704,76
560,722	42170,24
560,949	43784,04
561,176	42764,15
561,403	42798,96
561,63	42821,49
561,857	42932,08
562,084	43163,5
562,312	42667,89
562,539	42270,59
562,767	44595,03
562,995	43566,95
563,223	42956,66
563,451	42932,08
563,679	43429,74
563,908	43992,93
564,136	43118,45
564,365	43683,69
564,594	43616,1
564,823	45387,6
565,052	43509,61
565,281	43290,48
565,51	44396,38
565,74	43929,44
565,969	43220,84
566,199	43710,31
566,429	44242,78
566,659	44332,89
566,889	43478,89
567,119	43378,54
567,35	45053,78
567,58	44840,79
567,811	43978,59
568,042	43865,95
568,273	44494,68
568,504	44953,43
568,735	43863,91
568,966	44044,13
569,198	44558,17
569,43	45193,04
569,661	44126,05
569,893	44371,8
570,125	45455,18
570,358	45559,62
570,59	43980,64
570,822	44037,98
571,055	45262,67
571,288	45371,21
571,521	44439,39
571,754	44035,94
571,987	44820,31
572,22	44996,43
572,454	44416,86
572,687	43794,28
572,921	44810,07
573,155	45307,72
573,389	44711,77
573,623	44257,12
573,858	45035,34
574,092	45586,25
574,327	44754,77
574,561	44554,07
574,796	45352,78
575,031	45231,95
575,266	44293,98
575,502	44668,76
575,737	45475,66
575,973	45115,22
576,209	44414,81
576,445	44666,71
576,681	45027,15
576,917	45086,54
577,153	44066,66
577,39	44562,26
577,626	45365,07
577,863	45156,17
578,1	44470,11
578,337	44324,7
578,574	45234
578,812	45614,92
579,049	44519,26
579,287	44793,68
579,525	45729,61
579,763	45619,02
580,001	44228,45
580,239	45147,98
580,478	46157,63
580,716	45293,39
580,955	44562,26
581,194	44582,74
581,433	45735,75
581,672	45016,91
581,911	44691,29
582,151	44238,68
582,39	45125,46
582,63	45666,12
582,87	44334,94
583,11	44783,44
583,35	44463,96
583,591	45434,7
583,831	44836,69
584,072	44595,03
584,313	45721,41
584,554	45410,12
584,795	44410,71
585,036	44920,66
585,277	45725,51
585,519	45688,65
585,761	44035,94
586,003	44570,46
586,245	45655,88
586,487	45895,49
586,729	44498,78
586,972	44445,53
587,215	46249,79
587,457	44314,46
587,7	44453,72
587,944	44062,56
588,187	44781,4
588,43	44846,93
588,674	44201,82
588,918	43935,59
589,162	45299,53
589,406	44349,28
589,65	43915,11
589,894	44824,4
590,139	45025,1
590,384	44840,79
590,629	43781,99
590,874	44228,45
591,119	44283,74
591,364	44627,8
591,61	43480,94
591,855	43622,25
592,101	45354,83
592,347	44414,81
592,593	43448,17
592,84	43923,3
593,086	45164,37
593,333	43734,88
593,58	42522,49
593,827	43437,93
594,074	44007,26
594,321	43790,18
594,568	42737,52
594,816	42940,27
595,064	43734,88
595,312	44293,98
595,56	42770,29
595,808	43214,7
596,057	43472,74
596,305	43431,79
596,554	42315,64
596,803	42684,28
597,052	44177,25
597,301	43655,01
597,551	42194,81
597,8	43038,58
598,05	43370,35
598,3	42745,72
598,55	42356,6
598,8	42221,44
599,051	42667,89
599,301	42708,85
599,552	42108,8
599,803	42045,31
600,054	43249,52
600,305	42940,27
600,556	41891,71
600,808	41865,09
601,06	42125,18
601,312	42694,52
601,564	41707,4
601,816	41750,4
602,068	42684,28
602,321	42934,13
602,574	41224,07
602,827	40796,05
603,08	42415,99
603,333	42467,19
603,587	40978,32
603,84	41056,14
604,094	42551,16
604,348	41621,38
604,602	40458,13
604,856	40861,58
605,111	41942,91
605,365	41648
605,62	40687,51
605,875	40572,82
606,13	41502,6
606,386	41244,55
606,641	40583,06
606,897	40413,08
607,153	40767,38
607,409	41691,01
607,665	39786,4
607,921	39856,03
608,178	40908,69
608,435	40974,22
608,692	40245,15
608,949	40005,53
609,206	40630,16
609,463	40009,63
609,721	39524,26
609,979	39612,32
610,237	40214,43
610,495	40597,4
610,753	39616,42
611,012	39368,62
611,27	40296,35
611,529	39923,61
611,788	39165,87
612,047	38944,69
612,307	39258,02
612,566	39745,44
612,826	38897,58
613,086	39350,18
613,346	38696,88
613,606	39757,73
613,867	38119,35
614,127	38936,49
614,388	38592,44
614,649	39217,07
614,91	38145,98
615,172	38074,3
615,433	38477,75
615,695	38414,26
615,957	37717,95
616,219	37750,72
616,481	38680,5
616,743	38180,79
617,006	37519,3
617,269	37484,48
617,532	38406,07
617,795	38311,86
618,058	37165
618,322	37023,69
618,586	37730,24
618,849	37650,37
619,114	37107,66
619,378	36741,07
619,642	37025,74
619,907	37318,6
620,172	36351,96
620,437	36511,7
620,702	37408,71
620,967	36470,74
621,233	35934,17
621,499	36011,99
621,765	36476,88
622,031	37019,6
622,297	35305,45
622,564	35604,45
622,83	35870,68
623,097	36743,12
623,364	35456,99
623,631	35588,06
623,899	36059,1
624,166	35915,74
624,434	34473,97
624,702	34764,78
624,97	35575,78
625,239	34566,13
625,507	34215,93
625,776	34406,39
626,045	34553,84
626,314	34992,11
626,584	34152,44
626,853	33558,53
627,123	34463,73
627,393	33847,29
627,663	33316,87
627,933	32929,8
628,204	34234,36
628,474	34226,17
628,745	32585,74
629,016	33157,13
629,287	33855,48
629,559	33460,23
629,83	32127
630,102	32430,1
630,374	32950,28
630,646	33662,97
630,919	31838,23
631,191	32102,42
631,464	32579,6
631,737	32006,17
632,01	31739,93
632,284	31576,09
632,557	32491,54
632,831	32288,79
633,105	31096,87
633,379	30871,59
633,654	30986,28
633,928	31641,63
634,203	30707,76
634,478	30398,51
634,753	31293,47
635,028	31264,8
635,304	30312,5
635,58	30195,76
635,856	30631,98
636,132	30973,99
636,408	29941,82
636,685	29696,06
636,961	30507,05
637,238	30029,88
637,515	29683,77
637,793	29026,37
638,07	30468,14
638,348	29751,35
638,626	28934,21
638,904	29005,89
639,182	29085,76
639,461	28907,59
639,74	28196,95
640,019	28440,65
640,298	28432,46
640,577	28747,85
640,857	27740,25
641,136	27707,48
641,416	28315,73
641,696	28844,1
641,977	27611,23
642,257	27615,32
642,538	28239,95
642,819	28878,92
643,1	26980,45
643,382	26697,83
643,663	28131,41
643,945	27629,66
644,227	26689,64
644,509	26425,45
644,792	27650,14
645,074	27279,46
645,357	25749,62
645,64	26081,39
645,923	26796,14
646,207	26675,3
646,49	25679,99
646,774	25403,52
647,058	26151,02
647,342	26548,33
647,627	25260,16
647,911	25057,41
648,196	26288,24
648,481	25768,05
648,767	24592,52
649,052	24594,57
649,338	25282,69
649,624	25055,36
649,91	24045,71
650,196	24090,77
650,483	25108,61
650,77	25231,49
651,057	24088,72
651,344	24152,21
651,631	24727,69
651,919	23949,46
652,207	23480,47
652,495	23355,55
652,783	24367,24
653,071	23963,79
653,36	22640,81
653,649	22685,86
653,938	23597,21
654,227	23761,05
654,517	22735,01
654,806	22317,23
655,096	22945,95
655,387	23455,9
655,677	22229,16
655,968	22050,99
656,258	22186,16
656,549	23158,94
656,841	21729,46
657,132	21633,21
657,424	22259,88
657,716	22057,14
658,008	21153,98
658,3	21160,13
658,592	22100,14
658,885	21883,06
659,178	20916,42
659,471	20670,66
659,765	20881,6
660,058	21586,1
660,352	20060,37
660,646	20037,84
660,94	21385,4
661,235	20852,93
661,53	20183,24
661,824	19687,64
662,12	20605,13
662,415	20213,96
662,711	19382,49
663,006	19738,83
663,302	20136,14
663,599	19955,92
663,895	18911,46
664,192	19194,08
664,489	20166,86
664,786	19904,72
665,083	18569,44
665,381	18747,62
665,678	19550,42
665,976	19384,54
666,275	18219,24
666,573	18452,71
666,872	18520,29
667,171	18989,28
667,47	17963,25
667,769	17971,44
668,069	18835,68
668,368	18893,02
668,668	17340,66
668,969	17365,24
669,269	18219,24
669,57	17778,93
669,871	17142,01
670,172	17342,71
670,473	18106,6
670,775	18063,6
671,077	16802,05
671,379	16767,23
671,681	17672,43
671,983	17395,96
672,286	16668,93
672,589	16339,21
672,892	17154,3
673,196	17008,89
673,499	16128,27
673,803	16007,44
674,107	16947,45
674,411	16728,32
674,716	15638,8
675,021	15761,68
675,326	16316,68
675,631	16681,22
675,936	15128,86
676,242	15167,77
676,548	15804,69
676,854	16582,91
677,16	14688,54
677,467	14946,59
677,774	15505,68
678,081	15524,12
678,388	14786,85
678,696	14911,77
679,004	15671,57
679,312	15694,1
679,62	14420,26
679,928	14309,67
680,237	15286,55
680,546	14268,71
680,855	14289,19
681,164	13572,4
681,474	14922,01
681,784	15124,76
682,094	13578,54
682,404	13363,51
682,715	14741,79
683,026	13742,38
683,337	13238,58
683,648	13252,92
683,959	14616,86
684,271	14256,42
684,583	12927,29
684,895	12648,77
685,208	13836,59
685,52	13984,04
685,833	13181,24
686,146	12699,97
686,46	13816,11
686,773	13308,21
687,087	12382,53
687,401	12501,31
687,716	13451,57
688,03	13396,28
688,345	11792,72
688,66	12046,66
688,975	12929,34
689,291	12935,48
689,607	12304,71
689,923	11684,17
690,239	12529,98
690,555	12726,59
690,872	11434,32
691,189	11293,01
691,506	12249,41
691,824	12626,24
692,142	11258,2
692,459	11092,31
692,778	11561,3
693,096	12036,42
693,415	11063,64
693,734	11125,08
694,053	11845,96
694,372	11098,45
694,692	10539,36
695,012	10897,75
695,332	11116,89
695,652	11495,76
695,973	10588,51
696,294	10527,07
696,615	10983,77
696,936	11506
697,258	9740,65
697,579	9875,82
697,902	10688,86
698,224	10502,5
698,546	9693,55
698,869	9736,56
699,192	10332,51
699,516	10690,91
699,839	9568,62
700,163	9738,6
700,487	10035,56
700,811	11200,85
701,136	9085,3
701,461	9312,63
701,786	10158,44
702,111	10625,37
702,436	8903,03
702,762	9255,28
703,088	10191,2
703,415	10527,07
703,741	8946,04
704,068	8821,11
704,395	9423,22
704,722	9963,88
705,05	8554,88
705,377	8507,77
705,705	9265,52
706,034	9382,26
706,362	8067,46
706,691	8208,77
707,02	9384,3
707,349	9197,94
707,679	8069,51
708,009	8098,18
708,339	9118,07
708,669	8757,63
709	7977,35
709,33	7778,7
709,661	8696,19
709,993	8520,06
710,324	7778,7
710,656	7487,89
710,988	8724,86
711,321	8708,48
711,653	7207,31
711,986	7483,79
712,319	7793,03
712,652	8331,65
712,986	7618,96
713,32	7352,72
713,654	8589,69
713,988	8456,57
714,323	7301,52
714,658	7152,02
714,993	8061,32
715,328	7840,14
715,664	7133,59
716	7180,69
716,336	8227,2
716,673	7610,76
717,009	6885,78
717,346	6857,11
717,683	8229,25
718,021	7561,61
718,359	6441,37
718,697	6654,36
719,035	7375,25
719,373	7246,23
719,712	6535,58
720,051	6336,93
720,39	7655,82
720,73	7281,04
721,07	6398,37
721,41	6357,41
721,75	7387,54
722,091	7195,03
722,432	6113,7
722,773	6416,8
723,114	6832,54
723,456	6949,27
723,798	5996,96
724,14	5972,39
724,482	6652,31
724,825	6818,2
725,168	5884,33
725,511	5972,39
725,855	6590,88
726,198	6212
726,542	5573,03
726,887	6113,7
727,231	6701,47
727,576	6144,42
727,921	5607,85
728,266	5358
728,612	6463,9
728,958	6640,03
729,304	5179,82
729,651	5636,52
729,997	5980,58
730,344	6105,51
730,691	5175,73
731,039	5403,05
731,387	6117,79
731,735	5939,62
732,083	5345,71
732,431	5241,26
732,78	5644,71
733,129	5241,26
733,479	4723,13
733,828	5122,48
734,178	5689,77
734,528	5351,85
734,879	4780,47
735,23	4565,43
735,581	5661,1
735,932	5566,89
736,283	4694,46
736,635	4743,61
736,987	5849,51
737,34	5833,13
737,692	4506,04
738,045	4381,12
738,398	5378,48
738,752	5616,04
739,105	4116,93
739,459	4620,73
739,814	5665,19
740,168	5413,29
740,523	4080,07
740,878	4483,52
741,233	5005,75
741,589	5333,42
741,945	4280,77
742,301	4254,14
742,657	5169,59
743,014	4923,83
743,371	3850,69
743,728	4473,28
744,086	4745,66
744,444	4778,42
744,802	3781,06
745,16	3946,95
745,519	5083,57
745,878	4446,65
746,237	3688,9
746,597	3924,42
746,956	4954,55
747,316	4651,45
747,677	3541,45
748,037	3695,05
748,398	4501,95
748,759	4547
749,121	3791,3
749,482	3893,7
749,844	4385,21
750,207	4041,15
750,569	3189,2
750,932	3613,13
751,295	5042,61
751,659	4432,32
752,022	3277,26
752,386	3811,78
752,751	4133,31
753,115	3891,65
753,48	3312,08
753,845	3320,27
754,21	4139,46
754,576	4114,88
754,942	3041,75
755,308	3353,04
755,675	3826,12
756,041	4499,9
756,409	2855,38
756,776	3082,7
757,144	4465,08
757,511	4063,68
757,88	2988,5
758,248	2736,6
758,617	3387,85
758,986	3854,79
759,355	3066,32
759,725	2890,2
760,095	3443,15
760,465	4047,3
760,836	2595,29
761,206	2814,42
761,577	4157,89
761,949	3234,25
762,32	3004,88
762,692	2505,18
763,065	3293,65
763,437	3295,69
763,81	2458,07
764,183	2679,26
764,556	3912,13
764,93	3301,84
765,304	2795,99
765,678	2695,64
766,053	3357,13
766,428	3285,45
766,803	2261,47
767,178	2413,02
767,554	2621,91
767,93	3195,34
768,306	2204,13
768,683	2281,95
769,06	3496,39
769,437	3197,39
769,814	2066,91
770,192	2140,64
770,57	2886,1
770,948	3727,82
771,327	2294,24
771,706	1982,95
772,085	3113,42
772,464	3457,48
772,844	2200,03
773,224	1901,03
773,605	2501,08
773,985	2716,12
774,366	2157,02
774,748	2394,59
775,129	3262,93
775,511	2957,78
775,893	1952,23
776,276	2179,55
776,658	3047,89
777,041	2828,76
777,425	1757,67
777,808	1927,65
778,192	2505,18
778,576	3105,23
778,961	1552,87
779,346	1845,73
779,731	2777,56
780,116	2175,45
780,502	1796,58
780,888	1806,82
781,274	2763,22
781,661	2429,4
782,048	1577,45
782,435	1651,17
782,823	2626,01
783,21	2638,3
783,598	1661,41
783,987	1788,39
784,376	2871,76
784,765	2384,35
785,154	1593,83
785,544	1565,16
785,933	2640,34
786,324	2187,74
786,714	1729
787,105	1335,79
787,496	2492,89
787,888	2298,33
788,279	1329,64
788,671	1462,76
789,064	2406,88
789,456	2503,13
789,849	1227,25
790,242	1231,34
790,636	2175,45
791,03	2437,59
791,424	1147,37
791,818	1798,63
792,213	2408,92
792,608	2294,24
793,004	1532,39
793,399	1094,13
793,795	2304,48
794,192	2030,05
794,588	1143,28
794,985	983,54
795,382	2150,88
795,78	1880,55
796,178	1149,42
796,576	1081,84
796,974	2736,6
797,373	2142,69
797,772	1139,18
798,172	1063,41
798,571	1921,51
798,971	2378,2
799,372	1186,29
799,772	1231,34
800,173	2335,2
800,574	2066,91
800,976	1147,37
801,378	913,91
801,78	1561,06
802,182	1458,67
802,585	1081,84
802,988	1028,59
803,392	1663,46
803,795	1552,87
804,199	1014,26
804,604	1157,61
805,008	1862,12
805,413	2322,91
805,819	1020,4
806,224	778,74
806,63	1802,72
807,036	1853,92
807,443	930,29
807,85	1077,74
808,257	1763,81
808,664	1843,68
809,072	1253,87
809,48	1081,84
809,889	2099,68
810,297	1937,89
810,706	1094,13
811,116	913,91
811,526	1583,59
811,936	1425,9
812,346	684,53
812,757	774,64
813,167	1606,12
813,579	1438,19
813,99	852,47
814,402	614,9
814,814	2230,75
815,227	1425,9
815,64	567,8
816,053	770,55
816,467	1761,77
816,88	1649,13
817,294	920,05
817,709	809,46
818,124	1413,61
818,539	1976,8
818,954	885,23
819,37	862,71
819,786	1167,85
820,202	1692,13
820,619	188,93
821,036	500,22
821,453	1749,48
821,871	1485,29
822,289	494,07
822,707	578,04
823,126	1591,78
823,545	1090,03
823,964	492,02
824,384	451,07
824,804	1059,31
825,224	1647,08
825,645	827,89
826,065	385,53
826,487	1597,93
826,908	1593,83
827,33	537,08
827,752	868,85
828,175	1434,09
828,598	1630,7
829,021	758,26
829,444	1217,01
829,868	1450,47
830,292	1090,03
830,717	246,27
831,142	324,09
831,567	1077,74
831,992	1124,85
832,418	866,8
832,844	303,61
833,27	1163,76
833,697	1184,24
834,124	152,06
834,552	168,45
834,979	1718,76
835,408	1507,82
835,836	176,64
836,265	500,22
836,694	1090,03
837,123	1413,61
837,553	217,6
837,983	8,7
838,413	1389,03
838,844	1413,61
839,275	186,88
839,706	504,31
840,138	1843,68
840,57	1044,98
841,003	246,27
841,435	383,48
841,868	954,87
842,302	979,44
842,735	387,58
843,169	107,01
843,604	1198,57
844,039	1251,82
844,474	139,77
844,909	117,25
845,345	1294,83
845,781	1282,54
846,217	78,33
846,654	23,04
847,091	1245,68
847,528	932,34
847,966	78,33
848,404	172,54
848,842	1747,43
849,281	363
849,72	209,4
850,16	74,24
850,599	864,75
851,039	805,36
851,48	477,69
851,921	31,23
852,362	1032,69
852,803	1450,47
853,245	-208,38
853,687	160,25
854,129	1196,53
854,572	725,49
855,015	-85,5
855,459	6,66
855,903	582,14
856,347	1155,57
856,791	188,93
857,236	43,52
857,681	1481,19
858,127	1778,15
858,572	315,9
859,019	127,49
859,465	1266,16
859,912	977,39
860,359	-214,52
860,807	-19,97
861,255	721,4
861,703	1247,72
862,151	135,68
862,6	430,59
863,05	1106,42
863,499	788,98
863,949	12,8
864,4	-81,41
864,85	1483,24
865,301	1198,57
865,752	41,47
866,204	68,09
866,656	647,67
867,109	1163,76
867,561	-200,19
868,014	207,36
868,468	1042,93
868,921	1208,81
869,376	61,95
869,83	-65,02
870,285	885,23
870,74	600,57
871,195	66,05
871,651	57,86
872,107	1434,09
872,564	647,67
873,021	-267,77
873,478	-290,3
873,936	1090,03
874,394	1130,99
874,852	-56,83
875,31	102,91
875,769	844,28
876,229	1499,63
876,688	51,71
877,148	-105,98
877,609	784,88
878,069	567,8
878,531	223,74
878,992	-294,4
879,454	731,64
879,916	844,28
880,378	-24,06
880,841	-146,94
881,304	299,52
881,768	430,59
882,232	-306,68
882,696	2,56
883,161	385,53
883,626	702,97
884,091	-114,17
884,557	-120,32
885,023	483,83
885,489	1042,93
885,956	-425,47
886,423	-196,09
886,89	258,56
887,358	864,75
887,826	-138,75
888,295	-77,31
888,763	438,78
889,233	1405,42
889,702	-136,7
890,172	-146,94
890,642	598,52
891,113	475,64
891,584	147,97
892,055	-144,89
892,527	993,78
892,999	1106,42
893,472	-105,98
893,944	-24,06
894,417	698,87
894,891	358,91
895,365	-105,98
895,839	8,7
896,314	887,28
896,789	-7,68
897,264	-220,67
897,74	-411,13
898,216	1147,37
898,692	860,66
899,169	-151,04
899,646	-300,54
900,123	657,91
900,601	1321,45
901,079	-261,63
901,558	-95,74
902,037	897,52
902,516	725,49
902,996	-345,59
903,476	-300,54
903,956	549,37
904,437	893,43
904,918	-333,31
905,399	-450,04
905,881	881,14
906,363	799,22
906,846	-359,93
907,329	-208,38
907,812	213,5
908,296	758,26
908,78	-335,35
909,264	-390,65
909,749	424,44
910,234	952,82
910,719	-335,35
911,205	-56,83
911,691	172,54
912,178	700,92
912,665	78,33
913,152	-253,44
913,64	393,72
914,128	852,47
914,616	-253,44
915,105	-185,85
915,594	580,09
916,084	1204,72
916,574	-142,85
917,064	-437,75
917,555	158,21
918,046	788,98
918,537	102,91
919,029	-636,41
919,521	416,25
920,013	1028,59
920,506	-97,79
920,999	-359,93
921,493	901,62
921,987	399,87
922,481	-138,75
922,976	-316,92
923,471	412,15
923,967	606,71
924,462	-187,9
924,959	-196,09
925,455	647,67
925,952	606,71
926,449	-359,93
926,947	-286,2
927,445	430,59
927,944	471,54
928,442	-613,88
928,942	-466,42
929,441	879,09
929,941	295,42
930,442	-366,07
930,942	-421,37
931,443	883,19
931,945	137,73
932,447	-476,66
932,949	-427,51
933,451	453,11
933,954	444,92
934,458	-153,09
934,961	-441,85
935,465	287,23
935,97	238,08
936,475	-282,11
936,98	-400,89
937,486	-54,78
937,992	262,65
938,498	-396,79
939,005	-359,93
939,512	274,94
940,019	647,67
940,527	-261,63
941,035	-226,81
941,544	725,49
942,053	422,39
942,562	-15,87
943,072	55,81
943,582	791,03
944,093	422,39
944,604	-548,34
945,115	-417,27
945,627	819,7
946,139	1079,79
946,651	-370,17
947,164	-294,4
947,677	594,42
948,191	528,89
948,705	-439,8
949,219	-503,29
949,734	389,63
950,249	659,96
950,765	-450,04
951,281	-470,52
951,797	1577,45
952,314	877,04
952,831	-464,38
953,348	-630,26
953,866	737,78
954,384	338,43
954,903	-409,08
955,422	-656,89
955,941	426,49
956,461	461,3
956,981	-458,23
957,502	-278,01
958,023	723,44
958,544	526,84
959,066	-232,96
959,588	-538,1
960,11	262,65
960,633	844,28
961,156	-292,35
961,68	-445,95
962,204	938,48
962,729	147,97
963,253	-447,99
963,779	201,21
964,304	606,71
964,83	1042,93
965,357	-599,54
965,883	-273,92
966,411	467,45
966,938	698,87
967,466	-372,22
967,994	-620,02
968,523	193,02
969,052	946,67
969,582	-445,95
970,112	-488,95
970,642	162,3
971,173	846,32
971,704	-476,66
972,235	-235
972,767	657,91
973,3	414,2
973,832	-261,63
974,365	-613,88
974,899	487,93
975,433	614,9
975,967	-636,41
976,502	-210,43
977,037	422,39
977,572	942,58
978,108	-568,82
978,644	-654,84
979,181	1040,88
979,718	770,55
980,255	-781,81
980,793	-368,12
981,331	-161,28
981,87	803,32
982,409	-396,79
982,948	-212,48
983,488	461,3
984,028	961,01
984,569	-261,63
985,11	-390,65
985,651	737,78
986,193	557,56
986,735	-601,59
987,278	-515,58
987,821	18,94
988,364	508,41
988,908	-269,82
989,452	-620,02
989,997	-312,83
990,542	575,99
991,088	-499,19
991,633	-163,33
992,18	283,13
992,726	-87,55
993,273	-376,31
993,821	-351,74
994,369	346,62
994,917	778,74
995,465	-581,11
996,014	-724,47
996,564	729,59
997,114	152,06
997,664	-261,63
998,215	-581,11
998,766	551,42
999,317	-15,87
999,869	-392,7
1000,421	-644,6
1000,974	571,9
1001,527	647,67
1002,081	-544,25
1002,635	-212,48
1003,189	535,03
1003,744	748,02
1004,299	-706,04
1004,854	-456,19
1005,41	870,9
1005,967	182,78
1006,523	-425,47
1007,081	-431,61
1007,638	526,84
1008,196	541,18
1008,755	-675,32
1009,313	-392,7
1009,873	688,63
1010,432	59,9
1010,992	-249,34
1011,553	-400,89
1012,114	436,73
1012,675	-71,17
1013,237	-327,16
1013,799	-148,99
1014,361	592,37
1014,924	10,75
1015,487	-759,28
1016,051	-493,05
1016,615	643,57
1017,18	614,9
1017,745	-503,29
1018,31	-132,61
1018,876	831,99
1019,442	389,63
1020,009	-398,84
1020,576	-728,56
1021,143	356,86
1021,711	674,29
1022,28	-503,29
1022,848	-480,76
1023,417	709,11
1023,987	338,43
1024,557	-589,3
1025,127	-523,77
1025,698	-71,17
1026,269	168,45
1026,841	-646,65
1027,413	-382,46
1027,985	229,88
1028,558	262,65
1029,131	-642,55
1029,705	-308,73
1030,279	418,3
1030,854	381,43
1031,429	-568,82
1032,004	-136,7
1032,58	745,97
1033,156	90,62
1033,733	-601,59
1034,31	-515,58
1034,887	647,67
1035,465	721,4
1036,043	-761,33
1036,622	-441,85
1037,201	289,28
1037,781	682,49
1038,361	-681,46
1038,941	-646,65
1039,522	391,67
1040,103	815,6
1040,685	-595,45
1041,267	-253,44
1041,85	1229,29
1042,433	524,79
1043,016	-560,63
1043,6	-376,31
1044,184	-251,39
1044,769	582,14
1045,354	-468,47
1045,939	-658,93
1046,525	287,23
1047,111	463,35
1047,698	-306,68
1048,285	-628,21
1048,873	508,41
1049,461	-58,88
1050,049	-613,88
1050,638	-591,35
1051,228	45,57
1051,817	827,89
1052,407	-644,6
1052,998	-278,01
1053,589	510,46
1054,18	631,29
1054,772	-876,02
1055,365	-615,93
1055,957	487,93
1056,55	262,65
1057,144	-433,66
1057,738	-585,21
1058,333	184,83
1058,927	92,67
1059,523	-470,52
1060,118	-642,55
1060,715	-69,12
1061,311	614,9
1061,908	-630,26
1062,506	-433,66
1063,103	485,88
1063,702	-19,97
1064,3	-728,56
1064,9	-681,46
1065,499	922,1
1066,099	86,53
1066,7	-513,53
1067,301	-736,76
1067,902	831,99
1068,504	698,87
1069,106	-302,59
1069,709	-380,41
1070,312	729,59
1070,915	557,56
1071,519	-560,63
1072,123	-339,45
1072,728	623,09
1073,333	250,36
1073,939	-245,24
1074,545	-503,29
1075,152	537,08
1075,759	197,12
1076,366	-712,18
1076,974	-292,35
1077,582	260,6
1078,191	776,69
1078,8	-441,85
1079,41	-790
1080,02	254,46
1080,63	412,15
1081,241	-142,85
1081,852	-853,49
1082,464	418,3
1083,076	453,11
1083,689	-673,27
1084,302	-400,89
1084,915	672,25
1085,529	518,65
1086,144	-552,44
1086,759	-478,71
1087,374	111,1
1087,99	311,8
1088,606	-572,92
1089,222	-521,72
1089,839	643,57
1090,457	276,99
1091,075	-417,27
1091,693	-902,64
1092,312	449,02
1092,931	838,13
1093,551	-597,49
1094,171	-212,48
1094,792	420,35
1095,413	160,25
1096,034	-499,19
1096,656	-480,76
1097,278	561,66
1097,901	188,93
1098,524	-574,97
1099,148	-384,51
1099,772	868,85
1100,397	371,19
1101,022	-673,27
1101,647	-454,14
1102,273	430,59
1102,899	672,25
1103,526	-900,59
1104,153	-333,31
1104,781	666,1
1105,409	750,07
1106,038	-626,17
1106,667	-851,44
1107,296	152,06
1107,926	156,16
1108,556	-85,5
1109,187	-519,67
1109,818	324,09
1110,45	664,05
1111,082	-407,03
1111,715	-505,34
1112,348	451,07
1112,981	246,27
1113,615	-294,4
1114,25	-456,19
1114,885	254,46
1115,52	117,25
1116,156	-710,13
1116,792	-558,58
1117,428	614,9
1118,066	236,03
1118,703	-273,92
1119,341	-546,3
1119,98	643,57
1120,618	836,08
1121,258	-736,76
1121,898	-736,76
1122,538	475,64
1123,179	-60,93
1123,82	-439,8
1124,461	-464,38
1125,103	655,86
1125,746	76,29
1126,389	-300,54
1127,032	-738,8
1127,676	565,75
1128,32	827,89
1128,965	-531,96
1129,61	-318,97
1130,256	76,29
1130,902	653,81
1131,549	-521,72
1132,196	-587,26
1132,844	795,12
1133,491	680,44
1134,14	-507,38
1134,789	-431,61
1135,438	999,92
1136,088	123,39
1136,738	-703,99
1137,389	-699,89
1138,04	512,5
1138,692	975,35
1139,344	-546,3
1139,996	-521,72
1140,649	453,11
1141,303	674,29
1141,957	-458,23
1142,611	-519,67
1143,266	483,83
1143,921	336,38
1144,577	-546,3
1145,233	-531,96
1145,89	72,19
1146,547	526,84
1147,205	-736,76
1147,863	-437,75
1148,521	395,77
1149,18	627,19
1149,84	-777,72
1150,5	-570,87
1151,16	248,32
1151,821	739,83
1152,482	-634,36
1153,144	-52,74
1153,806	399,87
1154,469	459,26
1155,132	-744,95
1155,796	-468,47
1156,46	547,32
1157,124	846,32
1157,789	-660,98
1158,455	-568,82
1159,121	371,19
1159,787	0,51
1160,454	-609,78
1161,121	-458,23
1161,789	188,93
1162,457	559,61
1163,126	-505,34
1163,795	-517,62
1164,465	418,3
1165,135	119,29
1165,806	-511,48
1166,477	-413,18
1167,148	-396,79
1167,82	449,02
1168,493	-783,86
1169,166	-433,66
1169,839	-60,93
1170,513	328,19
1171,187	-675,32
1171,862	-552,44
1172,537	332,28
1173,213	410,11
1173,889	-613,88
1174,566	-540,15
1175,243	674,29
1175,921	217,6
1176,599	-382,46
1177,278	-310,78
1177,957	2,56
1178,636	715,25
1179,316	-339,45
1179,997	-765,43
1180,678	403,96
1181,359	707,06
1182,041	-691,7
1182,723	-759,28
1183,406	737,78
1184,089	86,53
1184,773	-736,76
1185,457	-699,89
1186,142	98,81
1186,827	1229,29
1187,513	-632,31
1188,199	-290,3
1188,886	164,35
1189,573	338,43
1190,26	-491
1190,948	-574,97
1191,637	-56,83
1192,326	209,4
1193,015	-628,21
1193,705	-787,96
1194,396	131,58
1195,087	336,38
1195,778	-357,88
1196,47	-718,33
1197,162	352,76
1197,855	432,63
1198,548	-585,21
1199,242	-871,92
1199,936	451,07
1200,631	575,99
1201,326	-785,91
1202,022	-648,69
1202,718	684,53
1203,415	432,63
1204,112	-822,77
1204,81	-425,47
1205,508	57,86
1206,206	928,24
1206,905	-609,78
1207,605	-626,17
1208,305	262,65
1209,005	356,86
1209,706	-712,18
1210,408	-663,03
1211,11	313,85
1211,812	418,3
1212,515	-595,45
1213,218	-519,67
1213,922	330,23
1214,627	358,91
1215,331	-570,87
1216,037	-595,45
1216,743	-19,97
1217,449	453,11
1218,156	-456,19
1218,863	-482,81
1219,571	268,8
1220,279	805,36
1220,988	-712,18
1221,697	-534,01
1222,406	631,29
1223,117	188,93
1223,827	-503,29
1224,538	-593,4
1225,25	264,7
1225,962	428,54
1226,675	-857,59
1227,388	-519,67
1228,101	248,32
1228,815	-7,68
1229,53	-527,86
1230,245	-499,19
1230,961	420,35
1231,677	215,55
1232,393	-517,62
1233,11	-577,02
1233,828	997,87
1234,546	434,68
1235,264	-527,86
1235,983	-306,68
1236,702	1083,89
1237,422	287,23
1238,143	-372,22
1238,864	-636,41
1239,585	700,92
1240,307	-335,35
1241,029	-767,48
1241,752	-241,15
1242,476	680,44
1243,2	815,6
1243,924	-495,1
1244,649	-527,86
1245,374	614,9
1246,1	713,21
1246,826	-871,92
1247,553	-556,54
1248,28	434,68
1249,008	428,54
1249,737	-699,89
1250,465	-374,27
1251,195	498,17
1251,925	727,54
1252,655	-587,26
1253,386	-282,11
1254,117	207,36
1254,849	166,4
1255,581	-556,54
1256,314	-431,61
1257,047	801,27
1257,781	508,41
1258,515	-605,69
1259,25	-114,17
1259,985	291,32
1260,721	410,11
1261,457	-468,47
1262,194	-781,81
1262,931	258,56
1263,669	653,81
1264,407	-480,76
1265,146	-765,43
1265,885	307,71
1266,625	205,31
1267,365	-552,44
1268,106	-636,41
1268,847	320
1269,589	70,14
1270,331	-398,84
1271,074	-564,73
1271,817	291,32
1272,561	410,11
1273,305	-286,2
1274,05	-421,37
1274,795	403,96
1275,541	315,9
1276,287	-843,25
1277,034	-695,8
1277,781	-11,78
1278,529	561,66
1279,277	-871,92
1280,026	-777,72
1280,775	758,26
1281,525	-423,42
1282,275	-822,77
1283,026	-224,76
1283,777	420,35
1284,529	320
1285,281	-462,33
1286,034	-814,58
1286,788	745,97
1287,541	397,82
1288,296	-822,77
1289,051	-364,03
1289,806	457,21
1290,562	600,57
1291,318	-691,7
1292,075	-507,38
1292,832	799,22
1293,59	872,95
1294,349	-597,49
1295,108	-517,62
1295,867	934,39
1296,627	578,04
1297,387	-722,42
1298,148	-499,19
1298,91	287,23
1299,672	100,86
1300,434	-628,21
1301,197	-703,99
1301,961	1321,45
1302,725	320
1303,489	-366,07
1304,254	-468,47
1305,02	377,34
1305,786	782,84
1306,552	-882,16
1307,319	-878,07
1308,087	795,12
1308,855	766,45
1309,624	-593,4
1310,393	-505,34
1311,162	-181,76
1311,933	641,53
1312,703	-595,45
1313,474	-409,08
1314,246	283,13
1315,018	506,36
1315,791	-146,94
1316,564	-658,93
1317,338	586,23
1318,112	225,79
1318,887	-751,09
1319,662	-507,38
1320,438	401,91
1321,214	256,51
1321,991	-409,08
1322,769	-646,65
1323,546	363
1324,325	76,29
1325,104	-654,84
1325,883	-462,33
1326,663	-146,94
1327,444	408,06
1328,224	-577,02
1329,006	-491
1329,788	340,47
1330,571	283,13
1331,354	-294,4
1332,137	-710,13
1332,921	721,4
1333,706	-118,27
1334,491	-335,35
1335,277	-529,91
1336,063	76,29
1336,849	188,93
1337,637	-724,47
1338,424	-636,41
1339,213	932,34
1340,001	854,51
1340,791	-710,13
1341,581	-384,51
1342,371	586,23
1343,162	254,46
1343,953	-663,03
1344,745	-515,58
1345,537	434,68
1346,33	557,56
1347,124	-593,4
1347,918	-384,51
1348,712	1010,16
1349,507	565,75
1350,303	-679,41
1351,099	-425,47
1351,896	43,52
1352,693	-216,57
1353,49	-507,38
1354,289	-529,91
1355,087	498,17
1355,887	731,64
1356,686	-482,81
1357,487	-531,96
1358,288	51,71
1359,089	254,46
1359,891	-89,6
1360,693	-531,96
1361,496	-24,06
1362,3	260,6
1363,104	-603,64
1363,908	-595,45
1364,713	807,41
1365,519	807,41
1366,325	-597,49
1367,131	-814,58
1367,939	256,51
1368,746	811,51
1369,555	-902,64
1370,363	-497,14
1371,173	780,79
1371,982	1237,49
1372,793	-681,46
1373,604	-876,02
1374,415	610,81
1375,227	731,64
1376,039	-728,56
1376,852	-679,41
1377,666	1032,69
1378,48	258,56
1379,295	-597,49
1380,11	-734,71
1380,925	-46,59
1381,742	950,77
1382,558	-491
1383,376	-660,98
1384,193	393,72
1385,012	92,67
1385,831	-691,7
1386,65	-572,92
1387,47	123,39
1388,29	164,35
1389,111	-548,34
1389,933	-785,91
1390,755	588,28
1391,578	305,66
1392,401	-851,44
1393,225	-593,4
1394,049	803,32
1394,873	193,02
1395,699	-687,61
1396,525	-486,9
1397,351	782,84
1398,178	-19,97
1399,005	-499,19
1399,833	-945,65
1400,662	584,18
1401,491	991,73
1402,321	-562,68
1403,151	-529,91
1403,981	385,53
1404,813	494,07
1405,644	-380,41
1406,477	-759,28
1407,309	233,98
1408,143	1079,79
1408,977	-663,03
1409,811	-513,53
1410,646	840,18
1411,482	719,35
1412,318	-499,19
1413,155	-564,73
1413,992	659,96
1414,829	-97,79
1415,668	-497,14
1416,506	-378,36
1417,346	807,41
1418,186	393,72
1419,026	-667,13
1419,867	-792,05
1420,709	668,15
1421,551	619
1422,393	-812,53
1423,236	-411,13
1424,08	344,57
1424,924	371,19
1425,769	-738,8
1426,614	-570,87
1427,46	477,69
1428,307	272,89
1429,154	-775,67
1430,001	-710,13
1430,849	444,92
1431,698	254,46
1432,547	-828,92
1433,397	-884,21
1434,247	696,82
1435,098	922,1
1435,949	-611,83
1436,801	-523,77
1437,653	182,78
1438,506	532,98
1439,36	-949,75
1440,214	-699,89
1441,069	475,64
1441,924	379,39
1442,78	-605,69
1443,636	-802,29
1444,493	291,32
1445,35	492,02
1446,208	-491
1447,067	-632,31
1447,926	381,43
1448,785	737,78
1449,645	-601,59
1450,506	-740,85
1451,367	334,33
1452,229	107,01
1453,091	-751,09
1453,954	-249,34
1454,818	131,58
1455,682	367,1
1456,546	-599,54
1457,412	-753,14
1458,277	702,97
1459,143	279,04
1460,01	-439,8
1460,878	-810,48
1461,745	350,71
1462,614	-24,06
1463,483	-769,52
1464,352	-423,42
1465,223	614,9
1466,093	721,4
1466,964	-699,89
1467,836	-792,05
1468,709	655,86
1469,581	352,76
1470,455	-462,33
1471,329	-663,03
1472,203	10,75
1473,079	107,01
1473,954	-210,43
1474,831	-726,52
1475,707	74,24
1476,585	217,6
1477,463	-624,12
1478,341	-617,97
1479,22	-19,97
1480,1	451,07
1480,98	-929,27
1481,861	-771,57
1482,742	430,59
1483,624	528,89
1484,506	-466,42
1485,389	-556,54
1486,273	133,63
1487,157	188,93
1488,041	-734,71
1488,926	-830,96
1489,812	418,3
1490,699	387,58
1491,585	-617,97
1492,473	-599,54
1493,361	-169,47
1494,249	135,68
1495,139	-552,44
1496,028	-431,61
1496,919	23,04
1497,809	455,16
1498,701	-593,4
1499,593	-581,11
1500,485	279,04
1501,378	717,3
1502,272	-390,65
1503,166	-611,83
1504,061	762,36
1504,956	367,1
1505,852	-585,21
1506,749	-775,67
1507,646	410,11
1508,543	414,2
1509,442	-783,86
1510,34	-120,32
1511,24	1044,98
1512,14	348,67
1513,04	-663,03
1513,941	-736,76
1514,843	1139,18
1515,745	-13,82
1516,648	-544,25
1517,551	-794,1
1518,455	-124,41
1519,359	-239,1
1520,264	-753,14
1521,17	-820,72
1522,076	160,25
1522,983	418,3
1523,89	-732,66
1524,798	-462,33
1525,706	395,77
1526,615	1282,54
1527,525	-765,43
1528,435	-646,65
1529,346	492,02
1530,257	119,29
1531,169	-400,89
1532,081	-677,37
1532,994	979,44
1533,908	125,44
1534,822	-736,76
1535,737	-544,25
1536,652	307,71
1537,568	168,45
1538,484	-679,41
1539,401	-978,42
1540,319	840,18
1541,237	-65,02
1542,156	-790
1543,075	-622,07
1543,995	897,52
1544,916	1126,89
1545,837	-728,56
1546,758	-710,13
1547,68	600,57
1548,603	655,86
1549,527	-511,48
1550,451	-720,37
1551,375	377,34
1552,3	717,3
1553,226	-843,25
1554,152	-775,67
1555,079	670,2
1556,006	356,86
1556,934	-536,06
1557,863	-646,65
1558,792	915,95
1559,722	49,66
1560,652	-527,86
1561,583	-884,21
1562,514	-69,12
1563,446	121,34
1564,379	-871,92
1565,312	-429,56
1566,246	592,37
1567,18	393,72
1568,115	-527,86
1569,051	-660,98
1569,987	809,46
1570,924	909,81
1571,861	-824,82
1572,799	-525,82
1573,737	608,76
1574,676	389,63
1575,616	-441,85
1576,556	-611,83
1577,497	-13,82
1578,438	137,73
1579,38	-708,09
1580,323	-550,39
1581,266	397,82
1582,21	696,82
1583,154	-605,69
1584,099	-712,18
1585,044	463,35
1585,99	709,11
1586,937	-345,59
1587,884	-466,42
1588,832	283,13
1589,78	930,29
1590,729	-615,93
1591,679	-417,27
1592,629	393,72
1593,58	442,87
1594,531	-572,92
1595,483	-491
1596,435	182,78
1597,388	-15,87
1598,342	-318,97
1599,296	-538,1
1600,251	510,46
1601,207	709,11
1602,163	-482,81
1603,119	-691,7
1604,077	881,14
1605,034	813,56
1605,993	-392,7
1606,952	121,34
1607,911	322,04
1608,872	461,3
1609,832	-650,74
1610,794	-826,87
1611,756	459,26
1612,718	455,16
1613,681	-267,77
1614,645	-519,67
1615,609	836,08
1616,574	219,64
1617,54	-151,04
1618,506	-519,67
1619,472	760,31
1620,44	729,59
1621,408	-163,33
1622,376	-464,38
1623,345	391,67
1624,315	776,69
1625,285	-507,38
1626,256	-441,85
1627,227	424,44
1628,199	-122,37
1629,172	-480,76
1630,145	-366,07
1631,119	543,22
1632,094	895,47
1633,069	-513,53
1634,044	-327,16
1635,02	217,6
1635,997	788,98
1636,975	-544,25
1637,953	-695,8
1638,931	893,43
1639,911	55,81
1640,89	-728,56
1641,871	-564,73
1642,852	614,9
1643,833	446,97
1644,816	-769,52
1645,798	-851,44
1646,782	989,68
1647,766	109,05
1648,75	-650,74
1649,736	-497,14
1650,721	0,51
1651,708	446,97
1652,695	-622,07
1653,682	-540,15
1654,671	367,1
1655,66	532,98
1656,649	-634,36
1657,639	-620,02
1658,63	-3,58
1659,621	188,93
1660,613	-761,33
1661,605	-761,33
1662,598	254,46
1663,592	207,36
1664,586	-855,54
1665,581	-759,28
1666,576	90,62
1667,572	262,65
1668,569	-538,1
1669,566	-646,65
1670,564	563,7
1671,563	700,92
1672,562	-697,85
1673,562	-310,78
1674,562	340,47
1675,563	537,08
1676,564	-327,16
1677,566	-548,34
1678,569	881,14
1679,572	-302,59
1680,576	-491
1681,581	-540,15
1682,586	61,95
1683,592	524,79
1684,598	-472,57
1685,605	-454,14
1686,613	705,01
1687,621	291,32
1688,63	-482,81
1689,639	-407,03
1690,649	217,6
1691,66	436,73
1692,671	-378,36
1693,683	-800,24
1694,696	0,51
1695,709	352,76
1696,722	-644,6
1697,737	-495,1
1698,752	133,63
1699,767	471,54
1700,783	-484,86
1701,8	-380,41
1702,818	367,1
1703,836	-32,26
1704,854	-759,28
1705,873	-613,88
1706,893	217,6
1707,914	313,85
1708,935	-564,73
1709,956	-574,97
1710,979	229,88
1712,002	283,13
1713,025	-564,73
1714,049	-556,54
1715,074	473,59
1716,099	569,85
1717,125	-728,56
1718,152	-687,61
1719,179	2,56
1720,207	664,05
1721,235	-177,66
1722,265	-167,42
1723,294	352,76
1724,325	272,89
1725,355	-308,73
1726,387	-482,81
1727,419	330,23
1728,452	438,78
1729,485	-431,61
1730,519	-706,04
1731,554	6,66
1732,589	414,2
1733,625	-724,47
1734,662	-556,54
1735,699	-7,68
1736,736	700,92
1737,775	-628,21
1738,814	-519,67
1739,853	172,54
1740,894	254,46
1741,934	-404,99
1742,976	-736,76
1744,018	510,46
1745,061	369,15
1746,104	-708,09
1747,148	-611,83
1748,193	274,94
1749,238	291,32
1750,284	-560,63
1751,33	-769,52
1752,377	389,63
1753,425	1016,3
1754,473	-540,15
1755,522	-536,06
1756,572	731,64
1757,622	573,94
1758,673	-808,44
1759,724	-531,96
1760,776	676,34
1761,829	803,32
1762,882	-253,44
1763,936	-738,8
1764,991	92,67
1766,046	1006,06
1767,102	-417,27
1768,158	-828,92
1769,215	348,67
1770,273	459,26
1771,331	-523,77
1772,39	-677,37
1773,45	455,16
1774,51	391,67
1775,571	-765,43
1776,632	-171,52
1777,694	229,88
1778,757	469,5
1779,82	-421,37
1780,884	-491
1781,949	141,82
1783,014	485,88
1784,08	-814,58
1785,147	-525,82
1786,214	172,54
1787,282	92,67
1788,35	-456,19
1789,419	-329,21
1790,489	713,21
1791,559	293,37
1792,63	-646,65
1793,702	-310,78
1794,774	139,77
1795,847	508,41
1796,92	-382,46
1797,994	-480,76
1799,069	496,12
1800,144	1153,52
1801,22	-622,07
1802,297	-368,12
1803,374	-77,31
1804,452	434,68
1805,531	-697,85
1806,61	-364,03
1807,69	543,22
1808,77	-169,47
1809,851	-474,62
1810,933	-871,92
1812,015	696,82
1813,098	141,82
1814,182	-466,42
1815,266	-409,08
1816,351	289,28
1817,437	346,62
1818,523	-556,54
1819,61	-495,1
1820,697	270,84
1821,785	1188,33
1822,874	-433,66
1823,963	-611,83
1825,053	205,31
1826,144	532,98
1827,235	-544,25
1828,327	-513,53
1829,42	311,8
1830,513	-151,04
1831,607	-671,22
1832,701	-548,34
1833,796	233,98
1834,892	705,01
1835,989	-808,44
1837,086	-767,48
1838,183	381,43
1839,282	262,65
1840,381	-628,21
1841,48	-564,73
1842,581	420,35
1843,682	887,28
1844,783	-212,48
1845,885	-302,59
1846,988	616,95
1848,092	424,44
1849,196	-466,42
1850,301	-388,6
1851,406	8,7
1852,512	1081,84
1853,619	-486,9
1854,726	-726,52
1855,834	29,18
1856,943	680,44
1858,052	-609,78
1859,162	-622,07
1860,273	420,35
1861,384	799,22
1862,496	-622,07
1863,608	-617,97
1864,721	410,11
1865,835	150,01
1866,95	-638,45
1868,065	-615,93
1869,181	96,77
1870,297	688,63
1871,414	-163,33
1872,532	-742,9
1873,65	111,1
1874,769	180,73
1875,889	-679,41
1877,009	-325,12
1878,13	500,22
1879,252	770,55
1880,374	-409,08
1881,497	-611,83
1882,62	338,43
1883,745	207,36
1884,87	-802,29
1885,995	-867,83
1887,121	205,31
1888,248	33,28
1889,376	-703,99
1890,504	-708,09
1891,632	397,82
1892,762	141,82
1893,892	-687,61
1895,023	-470,52
1896,154	193,02
1897,286	248,32
1898,419	-712,18
1899,552	-511,48
1900,686	549,37
1901,821	512,5
1902,956	-587,26
1904,092	-585,21
1905,229	834,04
1906,366	496,12
1907,504	-648,69
1908,643	-620,02
1909,782	430,59
